Time	keytime	time-time	keypress	target id	target_lon	target_lat	target_x	target_y	target_z	hmd_rx	hmd_ry	hmd_rz	
84.228	0.0274762	80.20531	0	17						-0.01082863	-0.002629627	-0.05936474	
84.250	0.04973324	80.22758	0	17						-0.01104682	-0.002638803	-0.05937116	
84.270	0.07025278	80.24809	0	17						-0.01124415	-0.002643264	-0.05940362	
84.289	0.08944492	80.26729	0	17						-0.01140744	-0.002647479	-0.05944311	
84.311	0.11058	80.28842	0	17						-0.01160486	-0.002625404	-0.0595063	
84.331	0.1305117	80.30835	0	17						-0.01176742	-0.002598798	-0.05955575	
84.352	0.1525254	80.33037	0	17						-0.01195901	-0.002556596	-0.05963211	
84.376	0.1759889	80.35383	0	17						-0.01216554	-0.002527107	-0.05973413	
84.395	0.195087	80.37292	0	17						-0.01234207	-0.002507283	-0.05980587	
84.417	0.217664	80.39551	0	17						-0.01249232	-0.002468343	-0.05988508	
84.437	0.2376266	80.41547	0	17						-0.01262374	-0.002459379	-0.05991026	
84.457	0.2571426	80.43498	0	17						-0.01272463	-0.002460439	-0.05991232	
84.477	0.2766994	80.45454	0	17						-0.01282026	-0.002444355	-0.05990742	
84.500	0.300176	80.47802	0	17						-0.01290682	-0.002434123	-0.05991587	
84.523	0.3228822	80.50072	0	17						-0.012977	-0.002450238	-0.05990513	
84.548	0.3482318	80.52607	0	17						-0.01302487	-0.002462529	-0.05990907	
84.582	0.3820891	80.55993	0	17						-0.0130819	-0.002465199	-0.05992079	
84.600	0.4011635	80.579	0	17						-0.01317463	-0.002429643	-0.05992869	
84.622	0.4217202	80.59956	0	17						-0.01320796	-0.002401696	-0.05995097	
84.641	0.4412912	80.61913	0	17						-0.01322252	-0.002389159	-0.05995535	
84.660	0.460001	80.63784	0	17						-0.01322453	-0.002391741	-0.05995004	
84.680	0.479903	80.65775	0	17						-0.01322165	-0.002396867	-0.05994174	
84.703	0.5032958	80.68114	0	17						-0.01323441	-0.002401444	-0.05994098	
84.724	0.5239469	80.70179	0	17						-0.01328275	-0.002386495	-0.05994586	
84.742	0.5423734	80.72021	0	17						-0.01327325	-0.002386367	-0.05997319	
84.760	0.5608537	80.73869	0	17						-0.01330125	-0.002376978	-0.06000462	
84.780	0.580256	80.75809	0	17						-0.01331911	-0.002362001	-0.06001323	
84.801	0.6004844	80.77833	0	17						-0.01331555	-0.002360197	-0.0600204	
84.819	0.6191507	80.79699	0	17						-0.01335691	-0.002352572	-0.06002127	
84.839	0.6391804	80.81702	0	17						-0.01339621	-0.002337707	-0.06002201	
84.862	0.6626783	80.84052	0	17						-0.01338466	-0.002367874	-0.05997944	
84.883	0.6835479	80.86139	0	17						-0.01336599	-0.002407593	-0.05990854	
84.904	0.7036265	80.88147	0	17						-0.01336695	-0.002433609	-0.05981696	
84.923	0.7232133	80.90105	0	17						-0.01335374	-0.00245917	-0.05971739	
84.943	0.7431225	80.92096	0	17						-0.01333186	-0.002494863	-0.05960979	
84.964	0.76416	80.942	0	17						-0.01332257	-0.002532562	-0.05950985	
84.984	0.7838278	80.96167	0	17						-0.01331356	-0.002581912	-0.05942169	
85.003	0.8033229	80.98116	0	17						-0.01331212	-0.002628903	-0.05936322	
85.027	0.8267007	81.00454	0	17						-0.01331732	-0.002666003	-0.05928937	
85.047	0.8477367	81.02557	0	17						-0.0133387	-0.002699596	-0.05920311	
85.068	0.8677146	81.04556	0	17						-0.01338789	-0.002722276	-0.05911334	
85.087	0.8872994	81.06514	0	17						-0.01346379	-0.002735671	-0.05906268	
85.105	0.9048564	81.0827	0	17						-0.01356259	-0.002757429	-0.05904063	
85.127	0.927591	81.10543	0	17						-0.01366808	-0.002749917	-0.0590534	
85.148	0.9484049	81.12624	0	17						-0.01379669	-0.002777466	-0.05908241	
85.171	0.9710456	81.14889	0	17						-0.01391643	-0.002775257	-0.05909775	
85.197	0.9973022	81.17514	0	17						-0.01404183	-0.002753244	-0.0590839	
85.216	1.016681	81.19452	0	17						-0.01419614	-0.002726039	-0.05908986	
85.237	1.03672	81.21456	0	17						-0.01426765	-0.002732479	-0.05909323	
85.261	1.06103	81.23887	0	17						-0.01436634	-0.002732602	-0.05908711	
85.298	1.097827	81.27567	0	17						-0.01447021	-0.002743113	-0.05905645	
85.319	1.118683	81.29652	0	17						-0.01457394	-0.00278846	-0.05896945	
85.341	1.141364	81.31921	0	17						-0.01461431	-0.002837752	-0.05891689	
85.364	1.164255	81.34209	0	17						-0.01469268	-0.00290191	-0.05887447	
85.384	1.184005	81.36185	0	17						-0.01476862	-0.002950808	-0.05884602	
85.406	1.206225	81.38406	0	17						-0.0147943	-0.002996453	-0.05879942	
85.424	1.224724	81.40257	0	17						-0.01482481	-0.003048601	-0.05874101	
85.445	1.24517	81.42301	0	17						-0.01485404	-0.003072978	-0.0586988	
85.466	1.266164	81.44401	0	17						-0.01491249	-0.003099851	-0.05866101	
85.486	1.286066	81.46391	0	17						-0.01497307	-0.00312986	-0.0586335	
85.507	1.307152	81.48499	0	17						-0.01497542	-0.003165711	-0.05860018	
85.532	1.332681	81.51052	0	17						-0.01495883	-0.003181022	-0.05857568	
85.552	1.352207	81.53004	0	17						-0.01495077	-0.003175222	-0.05853172	
85.572	1.372114	81.54996	0	17						-0.01494801	-0.003153736	-0.05854023	
85.593	1.392697	81.57053	0	17						-0.01495361	-0.003150606	-0.05854588	
85.616	1.415724	81.59357	0	17						-0.01494055	-0.003144343	-0.05857504	
85.636	1.436567	81.61441	0	17						-0.01497448	-0.003132655	-0.05861676	
85.660	1.460909	81.63875	0	17						-0.0149773	-0.0031247	-0.05864486	
85.684	1.483873	81.66171	0	17						-0.01499491	-0.003106082	-0.05869694	
85.705	1.505889	81.68373	0	17						-0.01501273	-0.003104494	-0.05874684	
85.727	1.527015	81.70486	0	17						-0.01497415	-0.003091776	-0.05879188	
85.748	1.548393	81.72623	0	17						-0.01501855	-0.003080417	-0.05887025	
85.771	1.571721	81.74956	0	17						-0.01502812	-0.003044235	-0.05893765	
85.793	1.593111	81.77095	0	17						-0.01509865	-0.002993545	-0.05904311	
85.812	1.612749	81.79059	0	17						-0.01512387	-0.002934599	-0.0591119	
85.840	1.640847	81.81869	0	17						-0.01514318	-0.002882386	-0.05915472	
85.860	1.659493	81.83733	0	17						-0.01512794	-0.002838961	-0.05920264	
85.881	1.68106	81.8589	0	17						-0.01520677	-0.002807176	-0.0592357	
85.904	1.703768	81.88161	0	17						-0.01521867	-0.002805114	-0.05925261	
85.924	1.724324	81.90216	0	17						-0.01526541	-0.002813663	-0.05926734	
85.944	1.744051	81.92189	0	17						-0.015303	-0.002836209	-0.05923836	
85.961	1.761764	81.93961	0	17						-0.01531794	-0.002892588	-0.05918151	
85.985	1.784362	81.9622	0	17						-0.01530104	-0.002940282	-0.05913609	
86.028	1.826524	82.00436	0	17						-0.01528464	-0.003023765	-0.05905894	
86.050	1.850335	82.02818	0	17						-0.01527502	-0.003138941	-0.058943	
86.068	1.86868	82.04652	0	17						-0.01535242	-0.00321996	-0.0587889	
86.089	1.888988	82.06683	0	17						-0.01536669	-0.003263814	-0.05869325	
86.112	1.91185	82.08969	0	17						-0.01535378	-0.003313781	-0.05860308	
86.131	1.931716	82.10956	0	17						-0.01538274	-0.003379125	-0.05846155	
86.153	1.953161	82.131	0	17						-0.01540445	-0.003438764	-0.05833666	
86.179	1.979389	82.15723	0	17						-0.01538112	-0.003503025	-0.05822271	
86.199	1.999314	82.17715	0	17						-0.01535933	-0.003569151	-0.05807726	
86.221	2.021307	82.19915	0	17						-0.01537884	-0.003583079	-0.05802318	
86.241	2.041151	82.21899	0	17						-0.01546684	-0.003557574	-0.05801886	
86.262	2.062196	82.24004	0	17						-0.01551064	-0.003565661	-0.05804854	
86.282	2.082316	82.26015	0	17						-0.01559748	-0.003548862	-0.05810527	
86.304	2.103947	82.28178	0	17						-0.01571858	-0.003509124	-0.05818008	
86.330	2.130649	82.30849	0	17						-0.01581949	-0.00346902	-0.05822979	
86.351	2.151763	82.32961	0	17						-0.01592757	-0.003397757	-0.05833038	
86.371	2.171139	82.34898	0	17						-0.01604192	-0.003333752	-0.05843152	
86.391	2.191255	82.36909	0	17						-0.01608349	-0.003279136	-0.05853385	
86.414	2.213599	82.39144	0	17						-0.01617675	-0.00322959	-0.05865858	
86.436	2.236156	82.41399	0	17						-0.01627936	-0.003150696	-0.05879832	
86.455	2.255944	82.43378	0	17						-0.01631468	-0.003077565	-0.05890054	
86.482	2.282428	82.46027	0	17						-0.01639121	-0.002998281	-0.05901058	
86.502	2.30223	82.48007	0	17						-0.01639696	-0.002919174	-0.0591306	
86.524	2.323636	82.50148	0	17						-0.0164651	-0.002864141	-0.05922073	
86.546	2.346545	82.52438	0	17						-0.01645485	-0.002811292	-0.05931107	
86.566	2.36595	82.54379	0	17						-0.01648168	-0.002765324	-0.05940178	
86.589	2.388988	82.56683	0	17						-0.01644592	-0.002730141	-0.05945667	
86.616	2.415254	82.59309	0	17						-0.01640796	-0.002686414	-0.05949835	
86.643	2.442665	82.62051	0	17						-0.01638351	-0.002649131	-0.05953408	
86.662	2.462999	82.64084	0	17						-0.01631801	-0.002625411	-0.05955924	
86.681	2.481879	82.65972	0	17						-0.01628159	-0.002618315	-0.05958197	
86.704	2.504148	82.68199	0	17						-0.01623525	-0.002603942	-0.05962925	
86.739	2.53881	82.71665	0	17						-0.01619804	-0.002594916	-0.0596835	
86.759	2.558975	82.73682	0	17						-0.01611702	-0.002600404	-0.05974204	
86.778	2.578527	82.75637	0	17						-0.01609382	-0.002607928	-0.05976886	
86.805	2.60503	82.78287	0	17						-0.01605264	-0.002614077	-0.05979721	
86.827	2.62675	82.80459	0	17						-0.01600341	-0.002629385	-0.05983659	
86.845	2.645867	82.82371	0	17						-0.01597433	-0.00264253	-0.0598424	
86.866	2.666531	82.84437	0	17						-0.01593472	-0.002655236	-0.05985377	
86.887	2.686685	82.86452	0	17						-0.01591882	-0.002677497	-0.05985364	
86.909	2.708796	82.88663	0	17						-0.01588179	-0.002680048	-0.05984593	
86.932	2.731772	82.90961	0	17						-0.01585601	-0.002679906	-0.0598	
86.957	2.756849	82.93469	0	17						-0.01581601	-0.002687023	-0.05974476	
86.977	2.777082	82.95493	0	17						-0.01579913	-0.002711468	-0.05970609	
87.001	2.801198	82.97903	0	17						-0.01575475	-0.002740495	-0.05969904	
87.023	2.822776	83.00062	0	17						-0.01578477	-0.002734712	-0.05968215	
87.044	2.844484	83.02232	0	17						-0.01576166	-0.002724058	-0.0596466	
87.064	2.864902	83.04274	0	17						-0.01575665	-0.002674823	-0.05959325	
87.086	2.886511	83.06435	0	17						-0.0157212	-0.002607975	-0.05954251	
87.111	2.911794	83.08964	0	17						-0.01563961	-0.002537497	-0.0594474	
87.133	2.932426	83.11027	0	17						-0.01555882	-0.00247509	-0.05937416	
87.152	2.952595	83.13043	0	17						-0.01544435	-0.002431802	-0.05931113	
87.172	2.97223	83.15007	0	17						-0.01533615	-0.002422876	-0.05930845	
87.193	2.992974	83.17081	0	17						-0.01524125	-0.002422908	-0.05932769	
87.213	3.012809	83.19065	0	17						-0.01520525	-0.002390162	-0.05936721	
87.232	3.032162	83.21001	0	17						-0.01517333	-0.002351944	-0.05941248	
87.254	3.054161	83.232	0	17						-0.01516431	-0.002292045	-0.0594342	
87.277	3.076605	83.25445	0	17						-0.01515477	-0.002251858	-0.05945277	
87.297	3.097437	83.27528	0	17						-0.01514005	-0.002232237	-0.05945864	
87.318	3.118738	83.29658	0	17						-0.0151392	-0.002196971	-0.05942149	
87.338	3.138335	83.31618	0	17						-0.01510424	-0.00218246	-0.05944692	
87.359	3.159669	83.33751	0	17						-0.01507163	-0.002165013	-0.05944544	
87.379	3.178818	83.35666	0	17						-0.01504063	-0.002174319	-0.05944861	
87.401	3.200955	83.3788	0	17						-0.01500633	-0.00219531	-0.05947218	
87.424	3.221968	83.39981	0	17						-0.01495456	-0.002211131	-0.05950157	
87.467	3.266308	83.44415	0	17						-0.01490416	-0.002240004	-0.05950587	
87.485	3.285834	83.46368	0	17						-0.01472411	-0.002298442	-0.05945254	
87.505	3.305209	83.48305	0	17						-0.01465995	-0.002299172	-0.0594269	
87.526	3.326199	83.50404	0	17						-0.01460311	-0.002292535	-0.05939082	
87.547	3.347434	83.52528	0	17						-0.01454596	-0.002292411	-0.05936657	
87.569	3.369692	83.54753	0	17						-0.01449395	-0.002301692	-0.0593385	
87.590	3.390646	83.56849	0	17						-0.01442123	-0.002308267	-0.05930707	
87.615	3.414973	83.59281	0	17						-0.01433566	-0.002333371	-0.05928703	
87.641	3.440761	83.6186	0	17						-0.01423099	-0.002350015	-0.05922974	
87.661	3.461017	83.63885	0	17						-0.01409924	-0.002359185	-0.05916515	
87.678	3.478756	83.65659	0	17						-0.01398586	-0.002370863	-0.05909985	
87.702	3.50114	83.67898	0	17						-0.01389346	-0.002367135	-0.05908427	
87.726	3.526364	83.70421	0	17						-0.01379348	-0.002394169	-0.05907011	
87.751	3.549979	83.72782	0	17						-0.01370516	-0.002419854	-0.05908594	
87.777	3.576701	83.75454	0	17						-0.0136194	-0.002436449	-0.05913763	
87.799	3.598148	83.77599	0	17						-0.01355802	-0.002461318	-0.05920473	
87.820	3.619997	83.79784	0	17						-0.01350594	-0.002444421	-0.05928404	
87.841	3.641348	83.81919	0	17						-0.01344895	-0.002445658	-0.05933197	
87.860	3.660009	83.83785	0	17						-0.01336018	-0.002452158	-0.05940022	
87.879	3.679283	83.85712	0	17						-0.01327603	-0.002438073	-0.05946683	
87.902	3.702187	83.88003	0	17						-0.01319134	-0.002435368	-0.05952085	
87.925	3.725591	83.90343	0	17						-0.01306409	-0.00242518	-0.05958232	
87.947	3.747039	83.92488	0	17						-0.01294008	-0.002406191	-0.05962912	
87.971	3.771497	83.94934	0	17						-0.01278705	-0.002406347	-0.05965467	
87.993	3.792411	83.97025	0	17						-0.01261133	-0.002447411	-0.05963565	
88.014	3.814148	83.99199	0	17						-0.01244726	-0.002476829	-0.05960794	
88.036	3.836823	84.01466	0	17						-0.01235	-0.002488485	-0.05959825	
88.060	3.860231	84.03807	0	17						-0.01222587	-0.002509572	-0.0595512	
88.083	3.882801	84.06064	0	17						-0.01211536	-0.002535082	-0.05951118	
88.102	3.902356	84.0802	0	17						-0.01201523	-0.002565759	-0.05946219	
88.125	3.924877	84.10271	0	17						-0.01194816	-0.002597626	-0.05942389	
88.148	3.948086	84.12593	0	17						-0.01188276	-0.002637316	-0.05938634	
88.171	3.970245	84.14809	0	17						-0.01182633	-0.00268405	-0.0593476	
88.209	4.00853	84.18637	0	17						-0.01180204	-0.00271718	-0.05933074	
88.230	4.03034	84.20818	0	17						-0.01180179	-0.002769627	-0.05928817	
88.256	4.056129	84.23397	0	17						-0.01183701	-0.002815381	-0.05926464	
88.276	4.076858	84.2547	0	17						-0.0118685	-0.002892625	-0.05920982	
88.299	4.098738	84.27658	0	17						-0.01193776	-0.002959231	-0.05916313	
88.323	4.122721	84.30056	0	17						-0.01200962	-0.003059126	-0.05910226	
88.349	4.148882	84.32672	0	17						-0.01213945	-0.00323121	-0.05902502	
88.368	4.167892	84.34573	0	17						-0.01224173	-0.003438212	-0.05890665	
88.388	4.18873	84.36657	0	17						-0.01236212	-0.003480075	-0.05888738	
88.418	4.218253	84.3961	0	17						-0.01248081	-0.003645705	-0.05873889	
88.441	4.24154	84.41938	0	17						-0.01263693	-0.003829376	-0.05855696	
88.462	4.262498	84.44034	0	17						-0.01272207	-0.004015179	-0.05836572	
88.484	4.283826	84.46167	0	17						-0.01279766	-0.004195605	-0.05815836	
88.502	4.30284	84.48068	0	17						-0.01286231	-0.004405933	-0.05789708	
88.521	4.322146	84.49998	0	17						-0.01295474	-0.004515284	-0.05775131	
88.541	4.341989	84.51983	0	17						-0.01310044	-0.004597343	-0.05765977	
88.572	4.370695	84.54854	0	17						-0.01323437	-0.004657044	-0.05757599	
88.591	4.391685	84.56953	0	17						-0.01340398	-0.004744856	-0.05746138	
88.614	4.41424	84.59208	0	17						-0.01348441	-0.004825894	-0.05735918	
88.635	4.434579	84.61242	0	17						-0.01358801	-0.004937781	-0.05721609	
88.656	4.456176	84.63402	0	17						-0.01362283	-0.005042762	-0.05710195	
88.678	4.478777	84.65662	0	17						-0.01364544	-0.005148987	-0.05695235	
88.699	4.499469	84.67731	0	17						-0.01365909	-0.00524686	-0.05681905	
88.729	4.528513	84.70635	0	17						-0.01368831	-0.005344659	-0.0566909	
88.750	4.550533	84.72837	0	17						-0.0137366	-0.005438725	-0.05657196	
88.770	4.570351	84.74819	0	17						-0.0137706	-0.00548438	-0.05644592	
88.791	4.591131	84.76897	0	17						-0.01382699	-0.00553924	-0.05639655	
88.813	4.612842	84.79068	0	17						-0.01389468	-0.00553659	-0.05635482	
88.834	4.634194	84.81203	0	17						-0.01396522	-0.005560919	-0.05632993	
88.853	4.654103	84.83195	0	17						-0.01405634	-0.005570938	-0.05630626	
88.879	4.679227	84.85707	0	17						-0.0141112	-0.005579818	-0.05629836	
88.902	4.702329	84.88017	0	17						-0.01419378	-0.005551754	-0.0563205	
88.925	4.724764	84.9026	0	17						-0.01425755	-0.005558462	-0.05631613	
88.963	4.763183	84.94102	0	17						-0.01429126	-0.005551533	-0.05631313	
88.983	4.783885	84.96172	0	17						-0.01433268	-0.005574314	-0.0563297	
89.006	4.805019	84.98286	0	17						-0.01435572	-0.005594926	-0.05636006	
89.034	4.8338	85.01164	0	17						-0.01437316	-0.005619138	-0.05639232	
89.055	4.855371	85.03321	0	17						-0.01435706	-0.005651448	-0.05641935	
89.076	4.875823	85.05367	0	17						-0.01435047	-0.005690623	-0.05645105	
89.096	4.895932	85.07377	0	17						-0.01432231	-0.005719372	-0.05647096	
89.119	4.918189	85.09603	0	17						-0.01428372	-0.005734783	-0.0564802	
89.139	4.93875	85.11659	0	17						-0.01426016	-0.005706244	-0.05649915	
89.159	4.959757	85.1376	0	17						-0.01423761	-0.005670493	-0.05652882	
89.187	4.986957	85.16479	0	17						-0.0142162	-0.005647679	-0.05656978	
89.206	5.006355	85.1842	0	17						-0.01421069	-0.00561397	-0.05664752	
89.227	5.027087	85.20493	0	17						-0.01418043	-0.005575901	-0.05671042	
89.247	5.047532	85.22537	0	17						-0.01414199	-0.005539566	-0.05677239	
89.270	5.070173	85.24802	0	17						-0.01408784	-0.005511514	-0.05683628	
89.290	5.090629	85.26847	0	17						-0.01406293	-0.005491344	-0.05690234	
89.310	5.110258	85.2881	0	17						-0.01400432	-0.005483046	-0.05695006	
89.336	5.135804	85.31364	0	17						-0.01393497	-0.005471748	-0.05698705	
89.357	5.156905	85.33475	0	17						-0.01389102	-0.005453717	-0.05702899	
89.377	5.177026	85.35487	0	17						-0.01378259	-0.005445664	-0.0570495	
89.397	5.197507	85.37535	0	17						-0.01370075	-0.005419105	-0.05706917	
89.416	5.216538	85.39438	0	17						-0.01361949	-0.005377691	-0.05710075	
89.436	5.236581	85.41442	0	17						-0.01354768	-0.005374168	-0.05711795	
89.455	5.255179	85.43302	0	17						-0.01343418	-0.005351617	-0.05714298	
89.478	5.278306	85.45615	0	17						-0.01337729	-0.005345454	-0.05715963	
89.504	5.303427	85.48127	0	17						-0.01331281	-0.005317258	-0.05719019	
89.525	5.324649	85.50249	0	17						-0.01326739	-0.005307229	-0.05721878	
89.548	5.34863	85.52647	0	17						-0.01323666	-0.005313289	-0.05722705	
89.568	5.368205	85.54604	0	17						-0.01316133	-0.005346135	-0.05719403	
89.590	5.390316	85.56815	0	17						-0.01311065	-0.005373457	-0.05716385	
89.609	5.409702	85.58754	0	17						-0.01304629	-0.005404922	-0.05713332	
89.630	5.430194	85.60803	0	17						-0.0130151	-0.005429656	-0.05712594	
89.655	5.454868	85.63271	0	17						-0.01292592	-0.00546508	-0.05708946	
89.689	5.489298	85.66714	0	17						-0.01286313	-0.005499195	-0.05705264	
89.708	5.508203	85.68604	0	17						-0.01282523	-0.00551298	-0.05705466	
89.728	5.527969	85.70581	0	17						-0.01272101	-0.005532356	-0.05700025	
89.750	5.549781	85.72762	0	17						-0.01268292	-0.005552659	-0.0569822	
89.771	5.571179	85.74902	0	17						-0.01263124	-0.005598622	-0.05695079	
89.792	5.592432	85.77027	0	17						-0.01256827	-0.005648664	-0.05690329	
89.819	5.619451	85.79729	0	17						-0.01247781	-0.005673354	-0.05681872	
89.839	5.638469	85.81631	0	17						-0.01239315	-0.005680605	-0.05674126	
89.859	5.658779	85.83662	0	17						-0.01232725	-0.005689483	-0.05670929	
89.881	5.681176	85.85902	0	17						-0.01225996	-0.005722439	-0.05665953	
89.904	5.703642	85.88148	0	17						-0.01219897	-0.00576191	-0.05662059	
89.925	5.725152	85.90299	0	17						-0.01212387	-0.005803444	-0.05656565	
89.948	5.748627	85.92647	0	17						-0.01202618	-0.005838233	-0.05649336	
89.971	5.771201	85.94904	0	17						-0.01192269	-0.005868698	-0.0564008	
89.994	5.794407	85.97225	0	17						-0.01184371	-0.005907491	-0.05633385	
90.014	5.814528	85.99237	0	17						-0.01176652	-0.005972168	-0.05626882	
90.038	5.837281	86.01512	0	17						-0.01167494	-0.00600538	-0.056197	
90.061	5.861352	86.03919	0	17						-0.01160526	-0.006037287	-0.0561204	
90.081	5.881367	86.05921	0	17						-0.01155341	-0.006045776	-0.05603926	
90.103	5.903202	86.08105	0	17						-0.01146108	-0.006039296	-0.05595773	
90.128	5.928884	86.10673	0	17						-0.01145678	-0.006025886	-0.05592844	
90.148	5.948837	86.12668	0	17						-0.01133716	-0.006018403	-0.05586163	
90.170	5.970911	86.14875	0	17						-0.01138276	-0.006007589	-0.05586839	
90.192	5.992114	86.16995	0	17						-0.01134096	-0.005991565	-0.05584127	
90.216	6.015528	86.19337	0	17						-0.0113934	-0.005985023	-0.05583311	
90.238	6.037985	86.21583	0	17						-0.01140542	-0.006000658	-0.05580773	
