Time	keytime	time-time	keypress	target id	target_lon	target_lat	target_x	target_y	target_z	hmd_rx	hmd_ry	hmd_rz	
189.741	19.29328	185.7395	0	3						-0.0006658472	-0.005179422	0.003767705	
189.768	19.3208	185.7671	0	3						-0.0006365515	-0.005398393	0.004131165	
189.787	19.34033	185.7866	0	3						-0.0006433614	-0.005552074	0.004441004	
189.807	19.35942	185.8057	0	3						-0.0006578714	-0.005590355	0.004661025	
189.825	19.37787	185.8241	0	3						-0.000650011	-0.005531752	0.00476316	
189.842	19.39504	185.8413	0	3						-0.0006388873	-0.005575672	0.005155341	
189.866	19.41841	185.8647	0	3						-0.0005910024	-0.005638381	0.005556535	
189.884	19.4368	185.8831	0	3						-0.0004608929	-0.005624247	0.006006861	
189.905	19.45781	185.9041	0	3						-0.0004003048	-0.005627383	0.006176302	
189.930	19.48291	185.9292	0	3						-0.0003121644	-0.005626326	0.006500519	
189.949	19.50208	185.9483	0	3						-0.0002160333	-0.005624368	0.00679564	
189.968	19.52049	185.9667	0	3						-0.0001163967	-0.005636736	0.006947745	
189.986	19.53927	185.9855	0	3						-7.938594E-06	-0.005623844	0.007089887	
190.007	19.55956	186.0058	0	3						0.0001555122	-0.005587232	0.007237446	
190.026	19.57876	186.025	0	3						0.0003161319	-0.005564038	0.007321178	
190.047	19.60009	186.0463	0	3						0.000466466	-0.005502499	0.007354669	
190.070	19.62283	186.0691	0	3						0.0006423183	-0.005427171	0.007387511	
190.094	19.64688	186.0931	0	3						0.0007843934	-0.00537322	0.00737445	
190.116	19.66876	186.115	0	3						0.0008436292	-0.005274178	0.007256136	
190.139	19.69147	186.1377	0	3						0.0009572878	-0.005214476	0.007156721	
190.158	19.7112	186.1575	0	3						0.001035351	-0.005141872	0.006996033	
190.181	19.73376	186.18	0	3						0.001067672	-0.00505016	0.006839987	
190.206	19.75821	186.2045	0	3						0.00111869	-0.004962066	0.006678566	
190.226	19.77925	186.2255	0	3						0.001176783	-0.004866124	0.00652958	
190.252	19.80472	186.251	0	3						0.001142375	-0.004757869	0.006289357	
190.271	19.82452	186.2708	0	3						0.001026154	-0.004623261	0.005952219	
190.293	19.84545	186.2917	0	3						0.0009117164	-0.004497154	0.005705187	
190.316	19.86898	186.3152	0	3						0.0007572025	-0.00437029	0.005342318	
190.339	19.89119	186.3374	0	3						0.0006685443	-0.004277465	0.005098253	
190.361	19.91344	186.3597	0	3						0.0005574152	-0.004140201	0.004731337	
190.399	19.95168	186.3979	0	3						0.0005121939	-0.004045902	0.004530177	
190.424	19.97621	186.4225	0	3						0.000519041	-0.003874377	0.004232614	
190.445	19.99758	186.4438	0	3						0.0006197952	-0.003791316	0.004155866	
190.467	20.01943	186.4657	0	3						0.0006728545	-0.003714972	0.004065187	
190.487	20.03925	186.4855	0	3						0.0006997474	-0.003639131	0.003909097	
190.507	20.05922	186.5055	0	3						0.000709787	-0.003524011	0.003757002	
190.526	20.07866	186.5249	0	3						0.0006769337	-0.003393849	0.003559524	
190.546	20.09874	186.545	0	3						0.000622198	-0.003339665	0.003458665	
190.565	20.1177	186.5639	0	3						0.0005431212	-0.003239954	0.00324641	
190.589	20.14151	186.5878	0	3						0.0004926361	-0.003166991	0.003082868	
190.607	20.15993	186.6062	0	3						0.0003906451	-0.003081155	0.002889689	
190.628	20.18079	186.627	0	3						0.0003270321	-0.003027645	0.002770838	
190.646	20.19921	186.6455	0	3						0.0001926236	-0.002983583	0.002590708	
190.666	20.21892	186.6652	0	3						8.095428E-05	-0.002950107	0.002479038	
190.686	20.23807	186.6843	0	3						-1.404807E-05	-0.002932578	0.00238635	
190.707	20.26008	186.7063	0	3						-0.0001256391	-0.002907319	0.002291877	
190.726	20.27888	186.7251	0	3						-0.00023444	-0.002887978	0.00219255	
190.752	20.30434	186.7506	0	3						-0.0003335252	-0.002864468	0.002105527	
190.770	20.32297	186.7692	0	3						-0.000494156	-0.002804058	0.001999811	
190.788	20.34141	186.7877	0	3						-0.0006530434	-0.002748786	0.001945333	
190.807	20.35965	186.8059	0	3						-0.0007424392	-0.002655036	0.001907666	
190.829	20.38104	186.8273	0	3						-0.0008920133	-0.002551336	0.001913048	
190.846	20.39881	186.8451	0	3						-0.001010627	-0.002427655	0.001899744	
190.865	20.41725	186.8635	0	3						-0.001068495	-0.002383294	0.001907761	
190.884	20.43687	186.8831	0	3						-0.001134973	-0.00235292	0.001918269	
190.907	20.45964	186.9059	0	3						-0.001328744	-0.00230186	0.001956969	
190.926	20.47824	186.9245	0	3						-0.00145178	-0.002299708	0.001977046	
190.946	20.49864	186.9449	0	3						-0.001583106	-0.002322996	0.001985476	
190.963	20.51603	186.9623	0	3						-0.001815845	-0.002364181	0.001948291	
190.982	20.53445	186.9807	0	3						-0.001930188	-0.002483842	0.001967881	
191.001	20.5543	187.0005	0	3						-0.002092135	-0.002540629	0.001997927	
191.022	20.57382	187.0201	0	3						-0.002247922	-0.002588992	0.002026011	
191.041	20.59393	187.0402	0	3						-0.002376251	-0.002651163	0.002047583	
191.065	20.61763	187.0639	0	3						-0.002487864	-0.002719317	0.002065607	
191.100	20.65218	187.0984	0	3						-0.002566654	-0.002776494	0.002080555	
191.118	20.67121	187.1175	0	3						-0.002693302	-0.002814052	0.002076066	
191.142	20.6944	187.1407	0	3						-0.002777115	-0.002873374	0.002076776	
191.162	20.71508	187.1613	0	3						-0.002799824	-0.002963804	0.002106838	
191.183	20.73604	187.1823	0	3						-0.002787061	-0.003028872	0.002160111	
191.207	20.76014	187.2064	0	3						-0.002777514	-0.003072095	0.002233381	
191.230	20.78264	187.2289	0	3						-0.002708662	-0.003130907	0.002354297	
191.251	20.80362	187.2499	0	3						-0.002639007	-0.003167783	0.002481353	
191.273	20.82525	187.2715	0	3						-0.002521843	-0.003222295	0.00263739	
191.294	20.84647	187.2927	0	3						-0.002358485	-0.003257918	0.002815248	
191.315	20.86784	187.3141	0	3						-0.002226226	-0.00328357	0.002935128	
191.338	20.89074	187.337	0	3						-0.00208871	-0.003315238	0.003061138	
191.362	20.91506	187.3613	0	3						-0.001929975	-0.003342451	0.003154468	
191.386	20.93896	187.3852	0	3						-0.00175991	-0.003357176	0.003258283	
191.404	20.95676	187.403	0	3						-0.001658657	-0.003348929	0.003325037	
191.428	20.98093	187.4272	0	3						-0.001608008	-0.00333923	0.003351751	
191.449	21.00154	187.4478	0	3						-0.001555268	-0.003336808	0.003394081	
191.474	21.02613	187.4724	0	3						-0.001514822	-0.003314576	0.003410183	
191.493	21.04585	187.4921	0	3						-0.001480591	-0.003283443	0.003412706	
191.518	21.07056	187.5168	0	3						-0.001501252	-0.003246721	0.00335668	
191.544	21.09647	187.5427	0	3						-0.00155035	-0.0032356	0.003295788	
191.565	21.11749	187.5638	0	3						-0.001639391	-0.003200194	0.003197261	
191.584	21.1367	187.583	0	3						-0.001729172	-0.003179435	0.003100858	
191.605	21.15802	187.6043	0	3						-0.001788319	-0.003170026	0.003047384	
191.629	21.18155	187.6278	0	3						-0.001870384	-0.003155071	0.002964666	
191.652	21.20409	187.6503	0	3						-0.001968596	-0.00315169	0.002853392	
191.673	21.22605	187.6723	0	3						-0.002074447	-0.003121777	0.002695224	
191.697	21.24979	187.696	0	3						-0.00217177	-0.003086832	0.002550763	
191.718	21.27113	187.7174	0	3						-0.002272359	-0.003028062	0.002411277	
191.740	21.29284	187.7391	0	3						-0.002338144	-0.002972146	0.002286389	
191.761	21.31392	187.7602	0	3						-0.002405026	-0.002925588	0.002166159	
191.786	21.31392	187.7822	1	1	120	0	0.4330127	0	-0.25	-0.00250062	-0.002844126	0.002009752	
191.786	21.33599	187.7822	0	1						-0.00250062	-0.002844126	0.002009752	
191.806	21.35902	187.8053	0	1						-0.002613819	-0.002771544	0.001905299	
191.841	21.39382	187.8401	0	1						-0.002689932	-0.002708814	0.001787642	
191.869	21.42204	187.8683	0	1						-0.00287661	-0.002612561	0.001603049	
191.890	21.44315	187.8894	0	1						-0.003009222	-0.002536839	0.001452854	
191.911	21.46279	187.909	0	1						-0.003122342	-0.00252866	0.001363743	
191.931	21.48407	187.9303	0	1						-0.003172968	-0.002494565	0.001284583	
191.951	21.50337	187.9496	0	1						-0.003245436	-0.002484356	0.001204027	
191.971	21.52396	187.9702	0	1						-0.003300671	-0.002489472	0.001147361	
191.992	21.54453	187.9908	0	1						-0.003328819	-0.002493531	0.001092151	
192.017	21.5703	188.0166	0	1						-0.003313377	-0.002525501	0.001050446	
192.039	21.59123	188.0375	0	1						-0.003275274	-0.002540923	0.0009714249	
192.057	21.61005	188.0563	0	1						-0.003233343	-0.002563113	0.0008937331	
192.077	21.63007	188.0763	0	1						-0.003197434	-0.002562855	0.0008655129	
192.097	21.64941	188.0957	0	1						-0.003095073	-0.002586327	0.0008422469	
192.114	21.66746	188.1137	0	1						-0.003047068	-0.002621071	0.0008640817	
192.134	21.68726	188.1335	0	1						-0.002950617	-0.002681214	0.0008485929	
192.156	21.70853	188.1548	0	1						-0.002880279	-0.002759779	0.0008396834	
192.179	21.73185	188.1781	0	1						-0.002765454	-0.002844769	0.0007787362	
192.201	21.75323	188.1995	0	1						-0.00263954	-0.002981667	0.0007535892	
192.220	21.77249	188.2187	0	1						-0.002458423	-0.003133966	0.0007111049	
192.239	21.79171	188.238	0	1						-0.002367414	-0.003227126	0.0007057896	
192.256	21.80891	188.2552	0	1						-0.002254524	-0.003298047	0.0006858635	
192.277	21.83026	188.2765	0	1						-0.002158673	-0.003379637	0.0006487203	
192.299	21.852	188.2982	0	1						-0.002037805	-0.003415724	0.0005530719	
192.318	21.87018	188.3164	0	1						-0.002020985	-0.00340396	0.0004041651	
192.342	21.89405	188.3403	0	1						-0.002055782	-0.003367344	0.0002749949	
192.363	21.9151	188.3614	0	1						-0.002067373	-0.003296888	0.0001094759	
192.382	21.93456	188.3808	0	1						-0.002034891	-0.003198008	-7.864909E-05	
192.402	21.95524	188.4015	0	1						-0.002016969	-0.00312963	-0.0002087366	
192.421	21.97413	188.4204	0	1						-0.002073303	-0.003052333	-0.0003108656	
192.440	21.99336	188.4396	0	1						-0.002149922	-0.002982832	-0.0004204113	
192.459	22.01178	188.458	0	1						-0.002135679	-0.002947422	-0.0005702405	
192.481	22.03384	188.4801	0	1						-0.002134673	-0.002904335	-0.000696142	
192.507	22.05839	188.5046	0	1						-0.001987704	-0.002890801	-0.0008829104	
192.544	22.09612	188.5424	0	1						-0.001656809	-0.002888843	-0.001061175	
192.563	22.11558	188.5618	0	1						-0.001172918	-0.002924899	-0.001002616	
192.581	22.13442	188.5807	0	1						2.15359E-05	-0.002963793	-0.001015674	
192.604	22.15613	188.6024	0	1						0.000756152	-0.00303017	-0.000959205	
192.626	22.17834	188.6246	0	1						0.00155104	-0.003052633	-0.0009264948	
192.644	22.19692	188.6432	0	1						0.002470524	-0.003068038	-0.0009782193	
192.668	22.22013	188.6664	0	1						0.00340082	-0.0031411	-0.0009585546	
192.690	22.24231	188.6886	0	1						0.004521538	-0.00312595	-0.00104103	
192.707	22.25962	188.7059	0	1						0.005597969	-0.003185006	-0.001056519	
192.727	22.28052	188.7268	0	1						0.00671266	-0.003240416	-0.001121307	
192.747	22.2994	188.7457	0	1						0.006688263	-0.003137693	-0.001119023	
192.768	22.32069	188.7669	0	1						0.007812657	-0.003120423	-0.001214717	
192.787	22.34007	188.7863	0	1						0.009048246	-0.00308635	-0.001300644	
192.805	22.35756	188.8038	0	1						0.01026459	-0.003028904	-0.001422473	
192.827	22.37988	188.8261	0	1						0.01165983	-0.002996491	-0.001547396	
192.849	22.40116	188.8474	0	1						0.01304928	-0.002926814	-0.001641917	
192.869	22.42205	188.8683	0	1						0.01451527	-0.002847546	-0.001755664	
192.895	22.4471	188.8933	0	1						0.01598709	-0.002704028	-0.00189457	
192.916	22.46935	188.9156	0	1						0.01741482	-0.002595364	-0.002096511	
192.937	22.49035	188.9366	0	1						0.01889147	-0.002506362	-0.002345111	
192.961	22.51352	188.9598	0	1						0.0203593	-0.002396607	-0.002589796	
192.982	22.53414	188.9804	0	1						0.02170685	-0.002318972	-0.002845234	
193.005	22.55736	189.0036	0	1						0.02307811	-0.002258982	-0.003123769	
193.026	22.57902	189.0253	0	1						0.02439705	-0.002232078	-0.003309133	
193.050	22.60269	189.0489	0	1						0.02556006	-0.002211621	-0.003547256	
193.071	22.62336	189.0696	0	1						0.02688888	-0.00228584	-0.003763231	
193.094	22.64707	189.0933	0	1						0.02806122	-0.002333126	-0.003965464	
193.116	22.66847	189.1147	0	1						0.02921821	-0.002471237	-0.004114955	
193.140	22.69277	189.139	0	1						0.03031318	-0.002582284	-0.004269245	
193.162	22.71433	189.1606	0	1						0.03140692	-0.00271409	-0.004499771	
193.183	22.73514	189.1814	0	1						0.03240008	-0.002928806	-0.004741667	
193.206	22.75801	189.2043	0	1						0.03340364	-0.003174108	-0.004913867	
193.227	22.78011	189.2264	0	1						0.03424667	-0.003447492	-0.005150139	
193.259	22.81209	189.2583	0	1						0.03506201	-0.003687004	-0.005451247	
193.281	22.83411	189.2804	0	1						0.03567365	-0.003940818	-0.006125945	
193.306	22.85934	189.3056	0	1						0.03616644	-0.004176699	-0.006676396	
193.327	22.87938	189.3256	0	1						0.03671578	-0.004503768	-0.007134799	
193.345	22.89793	189.3442	0	1						0.03724015	-0.004845237	-0.007567758	
193.363	22.91563	189.3619	0	1						0.03775755	-0.00519194	-0.008011539	
193.382	22.93475	189.381	0	1						0.03824469	-0.00549206	-0.008384807	
193.400	22.95356	189.3998	0	1						0.03877227	-0.005875377	-0.008791488	
193.421	22.97336	189.4196	0	1						0.03937488	-0.006200496	-0.008918336	
193.445	22.99757	189.4438	0	1						0.03998829	-0.006461562	-0.009317676	
193.467	23.01963	189.4659	0	1						0.04052475	-0.006793504	-0.009861737	
193.492	23.04502	189.4913	0	1						0.04101633	-0.007147301	-0.01019701	
193.513	23.06608	189.5123	0	1						0.04167867	-0.007496221	-0.0105352	
193.538	23.08967	189.5359	0	1						0.04232825	-0.007938972	-0.01080379	
193.560	23.11297	189.5592	0	1						0.04299853	-0.008541523	-0.01093894	
193.583	23.13494	189.5812	0	1						0.04381257	-0.009088623	-0.01122397	
193.606	23.15875	189.605	0	1						0.04461873	-0.009665295	-0.01147841	
193.627	23.17996	189.6262	0	1						0.04529334	-0.01021184	-0.01166072	
193.650	23.20229	189.6485	0	1						0.04614307	-0.0108256	-0.01190723	
193.671	23.22403	189.6703	0	1						0.04709379	-0.01143183	-0.01206861	
193.692	23.24498	189.6912	0	1						0.04820837	-0.01205102	-0.01224089	
193.717	23.26984	189.7161	0	1						0.04946306	-0.0128545	-0.01228103	
193.739	23.29172	189.738	0	1						0.05077215	-0.01379694	-0.01277884	
193.763	23.31527	189.7615	0	1						0.05202185	-0.01472918	-0.01313975	
193.785	23.3382	189.7845	0	1						0.0534075	-0.01576317	-0.01371687	
193.805	23.35791	189.8042	0	1						0.05464076	-0.01686877	-0.01431059	
193.827	23.38018	189.8264	0	1						0.05581484	-0.01799851	-0.01488888	
193.849	23.40151	189.8478	0	1						0.05701284	-0.01906911	-0.01543165	
193.876	23.42885	189.8751	0	1						0.05818847	-0.02018923	-0.01603158	
193.896	23.44873	189.895	0	1						0.05937014	-0.02117321	-0.01673833	
193.917	23.46968	189.9159	0	1						0.06056731	-0.02198694	-0.01706981	
193.941	23.49297	189.9392	0	1						0.06186564	-0.02261281	-0.01732022	
193.963	23.51508	189.9613	0	1						0.0631737	-0.02308528	-0.01769821	
193.998	23.55085	189.9971	0	1						0.06449652	-0.02345421	-0.01798537	
194.016	23.56913	190.0154	0	1						0.06580038	-0.02358275	-0.01857643	
194.035	23.58808	190.0343	0	1						0.06705189	-0.02355749	-0.01855211	
194.054	23.60671	190.053	0	1						0.06824189	-0.02337177	-0.01853338	
194.073	23.62524	190.0715	0	1						0.06935026	-0.02304555	-0.01846625	
194.094	23.64721	190.0935	0	1						0.07040498	-0.02261341	-0.01828596	
194.119	23.67115	190.1174	0	1						0.07131683	-0.02187199	-0.01849959	
194.138	23.69094	190.1372	0	1						0.07212556	-0.02087717	-0.01866929	
194.160	23.71305	190.1593	0	1						0.07284509	-0.01972839	-0.0187743	
194.184	23.73706	190.1833	0	1						0.07344165	-0.01848077	-0.01895663	
194.205	23.7581	190.2044	0	1						0.07390503	-0.01715419	-0.01923529	
194.230	23.78265	190.2289	0	1						0.07438865	-0.01579354	-0.01952064	
194.253	23.80553	190.2518	0	1						0.07474645	-0.01443529	-0.02007659	
194.273	23.82537	190.2716	0	1						0.07486761	-0.01314501	-0.0208127	
194.295	23.84801	190.2943	0	1						0.07500774	-0.01195392	-0.02144899	
194.317	23.86943	190.3157	0	1						0.07494435	-0.01104189	-0.02250559	
194.339	23.89191	190.3382	0	1						0.07489296	-0.01004799	-0.02336856	
194.363	23.91558	190.3618	0	1						0.07465628	-0.009255641	-0.02466054	
194.385	23.93753	190.3838	0	1						0.07424166	-0.008430512	-0.02578947	
194.409	23.96159	190.4078	0	1						0.07366881	-0.007794767	-0.02686306	
194.430	23.98268	190.4289	0	1						0.0730084	-0.007245552	-0.02783186	
194.452	24.00437	190.4506	0	1						0.0722359	-0.006769	-0.02880806	
194.474	24.02696	190.4732	0	1						0.07149665	-0.006236421	-0.02944946	
194.496	24.04871	190.495	0	1						0.07075393	-0.005841747	-0.0300831	
194.518	24.07102	190.5173	0	1						0.06995097	-0.005445329	-0.0306595	
194.539	24.09227	190.5385	0	1						0.06909434	-0.005204893	-0.03119762	
194.564	24.11613	190.5624	0	1						0.06826929	-0.00498331	-0.03176511	
194.586	24.13904	190.5853	0	1						0.06744584	-0.00472353	-0.0323616	
194.609	24.16161	190.6079	0	1						0.06667632	-0.004589034	-0.03305506	
194.630	24.18191	190.6282	0	1						0.06563205	-0.004336231	-0.03364063	
194.652	24.20395	190.6502	0	1						0.065046	-0.004239538	-0.03436288	
194.673	24.22584	190.6721	0	1						0.06409688	-0.003915056	-0.03480037	
194.694	24.24664	190.6929	0	1						0.06318856	-0.00352794	-0.03518046	
194.736	24.28839	190.7346	0	1						0.06231662	-0.003151175	-0.03531644	
194.755	24.30816	190.7544	0	1						0.06123524	-0.002735398	-0.0364894	
194.775	24.32734	190.7736	0	1						0.05968729	-0.001948389	-0.03616665	
194.797	24.34944	190.7957	0	1						0.05890185	-0.001582009	-0.03650466	
194.815	24.36807	190.8143	0	1						0.05845324	-0.001367092	-0.03710036	
194.835	24.38813	190.8344	0	1						0.05763841	-0.001018685	-0.03760001	
194.856	24.40909	190.8553	0	1						0.05681371	-0.0006941498	-0.03801972	
194.880	24.4328	190.879	0	1						0.05612522	-0.0004071333	-0.03847265	
194.899	24.45151	190.8978	0	1						0.05547918	-0.0001160881	-0.03886314	
194.917	24.4697	190.916	0	1						0.05488193	6.507794E-05	-0.03905051	
194.934	24.48694	190.9332	0	1						0.05428697	0.0002247727	-0.03917526	
194.959	24.51221	190.9585	0	1						0.05392575	0.000314807	-0.03924746	
194.980	24.53311	190.9794	0	1						0.05349142	0.0004409571	-0.03941621	
195.004	24.55658	191.0028	0	1						0.05310837	0.0004875646	-0.03957227	
195.028	24.58063	191.0269	0	1						0.05269203	0.0005613702	-0.03993205	
195.051	24.60385	191.0501	0	1						0.05225035	0.0005658035	-0.03994578	
195.072	24.62466	191.0709	0	1						0.05197924	0.0004703029	-0.03990298	
195.094	24.64657	191.0928	0	1						0.05181383	0.0002661249	-0.03958851	
195.117	24.67034	191.1166	0	1						0.05184194	4.022001E-05	-0.03943913	
195.139	24.69229	191.1385	0	1						0.05198319	-0.0003286786	-0.03915311	
195.160	24.71302	191.1593	0	1						0.05218645	-0.0006651698	-0.03892128	
195.186	24.73858	191.1848	0	1						0.05241743	-0.001007719	-0.03874938	
195.208	24.7603	191.2066	0	1						0.05265773	-0.001270246	-0.03865724	
195.231	24.78325	191.2295	0	1						0.05301735	-0.001598292	-0.03848882	
195.253	24.80537	191.2516	0	1						0.05335974	-0.001860095	-0.03832728	
195.275	24.82681	191.2731	0	1						0.0536841	-0.002119052	-0.03835072	
195.296	24.84845	191.2947	0	1						0.05409396	-0.00247643	-0.03821296	
195.319	24.87179	191.318	0	1						0.05447398	-0.002781334	-0.03829642	
195.340	24.89328	191.3395	0	1						0.05492935	-0.003026974	-0.03826638	
195.363	24.91558	191.3618	0	1						0.05534197	-0.003170718	-0.03844705	
195.384	24.9362	191.3824	0	1						0.05572673	-0.003276767	-0.03863387	
195.407	24.95994	191.4062	0	1						0.05614265	-0.003228206	-0.03886573	
195.428	24.9805	191.4268	0	1						0.05638289	-0.003117444	-0.03918441	
195.467	25.01876	191.465	0	1						0.0566083	-0.003074638	-0.03937795	
195.488	25.04087	191.4871	0	1						0.05708221	-0.002960584	-0.03968657	
195.508	25.06073	191.507	0	1						0.05744147	-0.002888873	-0.03974185	
195.531	25.08364	191.5299	0	1						0.05766173	-0.002866286	-0.03987404	
195.553	25.10487	191.5511	0	1						0.05776132	-0.002791421	-0.04012292	
195.571	25.12355	191.5698	0	1						0.0579402	-0.002740325	-0.04031156	
195.590	25.12355	191.5889	1	1	120	0	0.4330127	0	-0.25	0.0580883	-0.002688223	-0.04048166	
195.590	25.14261	191.5889	0	1						0.0580883	-0.002688223	-0.04048166	
195.609	25.16167	191.6079	0	1						0.05820441	-0.002639203	-0.04069246	
