Time	keytime	time-time	keypress	target id	target_lon	target_lat	target_x	target_y	target_z	hmd_rx	hmd_ry	hmd_rz	
344.704	0.02584808	340.506	0	3						1.710497	0.09666478	358.4946	
344.727	0.04941626	340.5296	0	3						1.671849	0.1038581	358.5026	
344.749	0.07271264	340.5529	0	3						1.655839	0.1019207	358.5109	
344.770	0.09312388	340.5733	0	3						1.634088	0.09928755	358.5237	
344.790	0.1136153	340.5938	0	3						1.623702	0.09138192	358.5326	
344.810	0.1332712	340.6134	0	3						1.612138	0.08583843	358.5372	
344.831	0.1545824	340.6348	0	3						1.592214	0.08316497	358.5605	
344.858	0.1806371	340.6608	0	3						1.570539	0.07430831	358.5621	
344.878	0.2017156	340.6819	0	3						1.539825	0.05910724	358.5744	
344.898	0.2208721	340.701	0	3						1.518116	0.06023112	358.5814	
344.923	0.2462003	340.7264	0	3						1.508324	0.06222557	358.5872	
344.946	0.2686212	340.7488	0	3						1.517565	0.06836057	358.595	
344.969	0.2910121	340.7712	0	3						1.514378	0.07594423	358.5898	
344.990	0.3129463	340.7931	0	3						1.534339	0.08606597	358.6026	
345.012	0.3352531	340.8154	0	3						1.543617	0.08179576	358.6274	
345.044	0.3658296	340.846	0	3						1.524235	0.07426941	358.6679	
345.063	0.3861299	340.8663	0	3						1.533164	0.0142417	358.7185	
345.081	0.4041079	340.8843	0	3						1.534156	0.0001959129	358.7589	
345.100	0.4237247	340.9039	0	3						1.544271	359.9367	358.7744	
345.120	0.4436599	340.9238	0	3						1.534191	359.8847	358.8194	
345.143	0.4664443	340.9466	0	3						1.53237	359.8581	358.851	
345.166	0.4896344	340.9698	0	3						1.517506	359.8182	358.8709	
345.190	0.5130548	340.9932	0	3						1.483681	359.8013	358.8954	
345.211	0.5345722	341.0147	0	3						1.447092	359.7497	358.924	
345.231	0.5547753	341.0349	0	3						1.428527	359.7395	358.9389	
345.251	0.5745454	341.0547	0	3						1.397016	359.7326	358.951	
345.271	0.5935601	341.0737	0	3						1.3663	359.7098	358.9662	
345.288	0.6114722	341.0916	0	3						1.314758	359.7008	358.9742	
345.308	0.6309791	341.1111	0	3						1.274123	359.7069	358.9888	
345.325	0.6485708	341.1288	0	3						1.261039	359.6946	359.0101	
345.347	0.6700957	341.1503	0	3						1.233846	359.7102	359.0206	
345.365	0.6887336	341.1689	0	3						1.204803	359.7082	359.0343	
345.383	0.7056841	341.1859	0	3						1.172686	359.7097	359.0477	
345.406	0.72812	341.2083	0	3						1.179186	359.717	359.0692	
345.424	0.747171	341.2273	0	3						1.156111	359.7217	359.0991	
345.445	0.7675455	341.2477	0	3						1.131987	359.7281	359.1183	
345.463	0.78575	341.2659	0	3						1.126997	359.7206	359.1324	
345.495	0.8183591	341.2985	0	3						1.117987	359.7177	359.1368	
345.513	0.836603	341.3168	0	3						1.088561	359.7169	359.1684	
345.534	0.8574089	341.3376	0	3						1.088079	359.7157	359.1727	
345.551	0.8744736	341.3546	0	3						1.067997	359.7136	359.1776	
345.572	0.8960112	341.3762	0	3						1.048003	359.7067	359.1785	
345.591	0.9143404	341.3945	0	3						1.038463	359.7154	359.1709	
345.609	0.9325014	341.4127	0	3						1.038544	359.7143	359.1666	
345.629	0.9521083	341.4323	0	3						1.032433	359.7264	359.1658	
345.648	0.970737	341.4509	0	3						1.034936	359.7361	359.1704	
345.670	0.993235	341.4734	0	3						1.046651	359.7486	359.1721	
345.693	1.016452	341.4966	0	3						1.044442	359.7467	359.1653	
345.714	1.037717	341.5179	0	3						1.057859	359.7587	359.164	
345.736	1.059235	341.5394	0	3						1.065825	359.7598	359.1484	
345.756	1.079119	341.5593	0	3						1.082742	359.7523	359.127	
345.773	1.096253	341.5764	0	3						1.083162	359.7581	359.1108	
345.793	1.115808	341.596	0	3						1.081924	359.7611	359.1029	
345.814	1.136582	341.6168	0	3						1.083819	359.7604	359.08	
345.836	1.158797	341.639	0	3						1.075606	359.7718	359.0658	
345.860	1.182246	341.6624	0	3						1.074465	359.7828	359.0494	
345.880	1.202587	341.6828	0	3						1.074135	359.7938	359.0211	
345.901	1.224655	341.7048	0	3						1.075036	359.8132	359.0084	
345.923	1.247024	341.7272	0	3						1.077476	359.8262	359.0054	
345.948	1.27077	341.7509	0	3						1.087077	359.8073	358.9938	
345.980	1.302654	341.7828	0	3						1.10438	359.796	358.9844	
345.999	1.321163	341.8013	0	3						1.117743	359.7819	358.9839	
346.017	1.339783	341.8199	0	3						1.135637	359.7746	358.9792	
346.036	1.359342	341.8395	0	3						1.1231	359.7743	358.9825	
346.054	1.37675	341.8569	0	3						1.110117	359.768	358.9862	
346.074	1.396568	341.8767	0	3						1.08487	359.7545	358.9955	
346.094	1.417595	341.8978	0	3						1.076468	359.7477	358.9858	
346.120	1.443302	341.9235	0	3						1.065286	359.7374	358.9914	
346.142	1.465424	341.9456	0	3						1.05988	359.6953	359.0126	
346.165	1.488559	341.9687	0	3						1.061656	359.6594	359.0365	
346.188	1.511014	341.9912	0	3						1.079759	359.5941	359.0569	
346.209	1.532813	342.013	0	3						1.114092	359.5408	359.0789	
346.234	1.557852	342.038	0	3						1.194674	359.5348	359.0674	
346.257	1.579367	342.0595	0	3						1.347821	359.5137	359.1074	
346.277	1.600419	342.0806	0	3						1.537478	359.5122	359.1352	
346.299	1.622065	342.1022	0	3						1.769344	359.6255	359.1173	
346.323	1.6463	342.1265	0	3						1.909794	359.7538	359.06	
346.346	1.668696	342.1489	0	3						2.183377	359.8681	359.0547	
346.365	1.68807	342.1682	0	3						2.398731	359.9417	359.0805	
346.391	1.713854	342.194	0	3						2.586165	359.9676	359.1386	
346.412	1.734329	342.2145	0	3						2.677265	359.9275	359.121	
346.435	1.757822	342.238	0	3						2.718382	359.8033	359.1165	
346.469	1.790871	342.271	0	3						2.667973	359.7444	359.1684	
346.486	1.809991	342.2902	0	3						2.662535	359.6529	359.1505	
346.505	1.829212	342.3094	0	3						2.577094	359.4874	359.1429	
346.523	1.84708	342.3272	0	3						2.46795	359.3719	359.149	
346.542	1.865763	342.3459	0	3						2.38098	359.3438	359.153	
346.561	1.884167	342.3643	0	3						2.241627	359.2534	359.1237	
346.577	1.90071	342.3809	0	3						2.135563	359.2607	359.1155	
346.597	1.92035	342.4005	0	3						1.96241	359.2152	359.0892	
346.616	1.939719	342.4199	0	3						1.795626	359.184	359.0263	
346.636	1.95949	342.4397	0	3						1.447631	359.182	358.9921	
346.658	1.980754	342.4609	0	3						1.420893	359.1747	359.0141	
346.679	2.002218	342.4824	0	3						1.300924	359.153	359.0503	
346.703	2.002218	342.5037	1	2	90	0	0.3	0	-1.311342E-08	0.01225487	0.006032018	-0.0301441	
346.703	2.023489	342.5037	0	2						1.12893	359.1245	359.096	
346.725	2.048527	342.5287	0	2						0.9885929	359.1439	359.1469	
346.746	2.069302	342.5495	0	2						0.778221	359.1386	359.1875	
346.768	2.090501	342.5707	0	2						0.6313399	359.132	359.288	
346.789	2.112182	342.5923	0	2						0.4971191	359.1299	359.3568	
346.812	2.134677	342.6148	0	2						0.3082166	359.0976	359.5183	
346.835	2.157835	342.638	0	2						0.1890318	359.0435	359.6094	
346.867	2.190108	342.6703	0	2						0.1123348	359.0263	359.6971	
346.890	2.214002	342.6942	0	2						359.9799	358.8979	359.7801	
346.913	2.236016	342.7162	0	2						359.9231	358.8014	359.8632	
346.944	2.267054	342.7472	0	2						359.902	358.685	359.9385	
346.962	2.285188	342.7654	0	2						359.8848	358.5447	0.008684549	
346.985	2.309138	342.7893	0	2						359.9145	358.3624	0.122563	
347.016	2.33942	342.8196	0	2						359.9391	358.2497	0.1249172	
347.037	2.360286	342.8405	0	2						359.9755	358.1632	0.1166826	
347.058	2.381711	342.8619	0	2						0.01906573	358.1187	0.09050361	
347.078	2.400923	342.8811	0	2						0.07915995	358.0915	0.09258715	
347.095	2.418539	342.8987	0	2						0.1374887	358.1056	0.05510837	
347.121	2.442822	342.923	0	2						0.196023	358.1648	0.04752516	
347.143	2.466214	342.9464	0	2						0.2634967	358.3256	359.9847	
347.172	2.4953	342.9755	0	2						0.329789	358.5558	359.9084	
347.191	2.514275	342.9944	0	2						0.365585	358.9546	359.831	
347.210	2.533996	343.0142	0	2						0.3784703	359.403	359.7883	
347.230	2.553102	343.0333	0	2						0.4388702	359.9579	359.7372	
347.253	2.576082	343.0562	0	2						0.4574886	0.686424	359.7093	
347.274	2.597832	343.078	0	2						0.3700819	1.654827	359.6909	
347.300	2.622707	343.1029	0	2						0.3924977	2.715093	359.6158	
347.324	2.647749	343.1279	0	2						0.3452991	3.88028	359.5599	
347.347	2.669858	343.15	0	2						0.277126	5.223881	359.4797	
347.365	2.688218	343.1684	0	2						0.1447899	6.659253	359.3845	
347.387	2.710334	343.1905	0	2						359.9638	8.11948	359.2648	
347.410	2.733012	343.2132	0	2						359.8873	9.602397	359.1977	
347.441	2.763663	343.2438	0	2						359.7411	11.03593	359.0287	
347.460	2.783578	343.2637	0	2						359.5985	12.42135	358.8088	
347.479	2.80219	343.2823	0	2						359.4939	13.81404	358.6472	
347.499	2.821677	343.3018	0	2						359.4151	15.18158	358.4762	
347.521	2.843945	343.3241	0	2						359.3651	16.45092	358.279	
347.544	2.86739	343.3476	0	2						359.4207	17.8207	358.0629	
347.565	2.887416	343.3676	0	2						359.3577	19.19179	357.9031	
347.591	2.913951	343.3941	0	2						359.4445	20.53122	357.7136	
347.611	2.934811	343.415	0	2						359.5076	21.85662	357.6754	
347.638	2.961332	343.4415	0	2						359.4843	23.02133	357.5846	
347.657	2.980835	343.461	0	2						359.4814	24.09749	357.5128	
347.679	3.002315	343.4825	0	2						359.4238	25.1953	357.4445	
347.699	3.022845	343.503	0	2						359.338	26.24651	357.4362	
347.720	3.043512	343.5237	0	2						359.3288	27.34281	357.4311	
347.742	3.065822	343.546	0	2						359.2537	28.42462	357.4047	
347.767	3.090774	343.571	0	2						359.3127	29.56224	357.4026	
347.788	3.11097	343.5911	0	2						359.437	30.76159	357.3867	
347.810	3.133868	343.614	0	2						359.5634	31.96238	357.3353	
347.833	3.155948	343.6361	0	2						359.6448	33.17485	357.3042	
347.858	3.181215	343.6614	0	2						359.7823	34.39599	357.2774	
347.879	3.202264	343.6824	0	2						359.8591	35.52533	357.2717	
347.915	3.23716	343.7173	0	2						359.9353	36.54878	357.2838	
347.934	3.256125	343.7363	0	2						0.04265859	37.46465	357.2237	
347.959	3.281461	343.7616	0	2						0.07654024	38.35506	357.1734	
347.981	3.304392	343.7845	0	2						0.1950753	39.12288	357.1411	
348.000	3.323715	343.8039	0	2						0.1895356	39.8244	357.0896	
348.021	3.344917	343.8251	0	2						0.1899357	40.47504	357.0163	
348.040	3.363913	343.8441	0	2						0.1166339	41.02464	356.9402	
348.061	3.383824	343.864	0	2						0.08221075	41.559	356.813	
348.079	3.401894	343.882	0	2						0.04775424	42.05037	356.771	
348.097	3.420732	343.9009	0	2						0.04076023	42.46291	356.753	
348.122	3.444905	343.9251	0	2						359.9818	42.81522	356.729	
348.143	3.465586	343.9457	0	2						359.9621	43.14253	356.748	
348.161	3.484805	343.965	0	2						359.8825	43.48066	356.7869	
348.179	3.502549	343.9827	0	2						359.871	43.71118	356.7838	
348.201	3.523609	344.0038	0	2						359.8597	44.00367	356.8462	
348.221	3.544349	344.0245	0	2						359.7538	44.27867	356.8588	
348.243	3.566077	344.0462	0	2						359.7045	44.62083	356.9423	
348.261	3.583799	344.064	0	2						359.6826	44.69422	356.9548	
348.288	3.610551	344.0907	0	2						359.5882	45.01096	356.9921	
348.309	3.631414	344.1116	0	2						359.4944	45.38254	357.0531	
348.330	3.652894	344.1331	0	2						359.4128	45.68183	357.1329	
348.347	3.670961	344.1511	0	2						359.3162	45.93306	357.1934	
348.381	3.704473	344.1846	0	2						359.257	46.16982	357.3035	
348.400	3.724032	344.2042	0	2						359.1689	46.35193	357.3539	
348.420	3.743365	344.2235	0	2						359.0836	46.49229	357.4228	
348.446	3.769101	344.2493	0	2						359.0264	46.62656	357.4781	
348.465	3.787969	344.2681	0	2						358.9829	46.66876	357.5587	
348.484	3.805983	344.2862	0	2						358.9272	46.70133	357.6367	
348.504	3.826897	344.3071	0	2						358.8952	46.71211	357.7127	
348.521	3.844107	344.3243	0	2						358.8762	46.70759	357.7521	
348.541	3.863804	344.344	0	2						358.8848	46.68808	357.834	
348.566	3.889057	344.3692	0	2						358.9107	46.63532	357.8513	
348.587	3.909758	344.3899	0	2						358.9274	46.53976	357.9258	
348.611	3.934192	344.4144	0	2						358.8796	46.42415	358.0657	
348.630	3.953403	344.4336	0	2						358.9122	46.25608	358.1616	
348.650	3.973424	344.4536	0	2						358.9572	46.05837	358.289	
348.675	3.997775	344.4779	0	2						358.9966	45.92016	358.4145	
348.696	4.01894	344.4991	0	2						358.9845	45.6651	358.558	
348.720	4.043231	344.5234	0	2						359.0323	45.46825	358.6541	
348.741	4.065289	344.5455	0	2						359.0782	45.22591	358.7607	
348.764	4.087457	344.5676	0	2						359.1257	45.03144	358.9097	
348.788	4.111452	344.5916	0	2						359.2069	44.79298	359.036	
348.812	4.134782	344.615	0	2						359.2673	44.51045	359.1258	
348.843	4.166348	344.6465	0	2						359.3245	44.27467	359.2325	
348.862	4.185471	344.6656	0	2						359.3941	43.93277	359.3129	
348.882	4.204502	344.6847	0	2						359.5295	43.64135	359.416	
348.901	4.224463	344.7046	0	2						359.6483	43.33324	359.4917	
348.928	4.251355	344.7315	0	2						359.7931	43.06694	359.576	
348.949	4.272697	344.7529	0	2						359.8643	42.70462	359.6176	
348.970	4.293081	344.7733	0	2						359.9695	42.35574	359.711	
348.988	4.311639	344.7918	0	2						0.09484532	41.96153	359.7313	
349.008	4.331583	344.8117	0	2						0.1207497	41.58641	359.8098	
349.029	4.352083	344.8322	0	2						0.1986395	41.20258	359.8501	
349.053	4.376889	344.8571	0	2						0.2902773	40.84053	359.9016	
349.080	4.376889	344.8827	1	2	90	0	0.3	0	-1.311342E-08	-0.006939609	0.01354586	0.02686682	
349.080	4.402566	344.8827	0	2						0.3663094	40.52516	359.957	
349.100	4.423801	344.904	0	2						0.4209489	40.18805	0.02577313	
349.122	4.445534	344.9257	0	2						0.4815599	39.90997	0.09416313	
349.146	4.468307	344.9485	0	2						0.4986208	39.69395	0.1340062	
349.165	4.487853	344.968	0	2						0.502834	39.47927	0.1590719	
349.190	4.512325	344.9925	0	2						0.5571271	39.25398	0.1866758	
349.211	4.534498	345.0147	0	2						0.5520278	39.01025	0.2005274	
349.240	4.561786	345.042	0	2						0.5604001	39.04892	0.1985123	
349.263	4.585689	345.0659	0	2						0.5618179	38.82207	0.2335944	
349.283	4.605766	345.0859	0	2						0.5345905	38.53313	0.2595986	
349.302	4.625428	345.1056	0	2						0.5117782	38.1629	0.280683	
349.334	4.656857	345.137	0	2						0.4417617	37.0548	0.4016372	
349.352	4.675705	345.1559	0	2						0.4529632	36.44979	0.4017945	
349.375	4.698429	345.1786	0	2						0.4834292	34.81378	0.480712	
349.396	4.719388	345.1996	0	2						0.4816346	31.72626	0.64627	
349.416	4.739717	345.2199	0	2						0.4924792	29.81953	0.7161493	
349.439	4.76212	345.2423	0	2						0.4727289	29.60025	0.7079287	
349.458	4.781726	345.2619	0	2						0.4467395	27.61156	0.8722594	
349.478	4.801765	345.2819	0	2						0.4112814	25.52725	1.039336	
349.501	4.823987	345.3042	0	2						0.3233421	23.30551	1.184289	
349.524	4.846806	345.327	0	2						0.2316952	21.11061	1.308624	
349.543	4.86629	345.3465	0	2						0.1169655	18.94224	1.361788	
349.568	4.890414	345.3706	0	2						359.9838	16.81583	1.490903	
349.589	4.912322	345.3925	0	2						359.8984	14.87221	1.697737	
349.613	4.935787	345.416	0	2						359.7676	13.0863	1.882802	
349.631	4.953802	345.434	0	2						359.6969	11.40189	2.03281	
349.655	4.978767	345.4589	0	2						359.6344	9.810421	2.190743	
349.677	5.000644	345.4808	0	2						359.6247	8.4642	2.271421	
349.700	5.023453	345.5036	0	2						359.6624	7.200744	2.382826	
349.720	5.043141	345.5233	0	2						359.7231	6.037631	2.427435	
349.745	5.068036	345.5482	0	2						359.7877	4.955578	2.455094	
349.764	5.087389	345.5676	0	2						359.7584	3.922234	2.592722	
349.789	5.112702	345.5929	0	2						359.7302	2.939513	2.651108	
349.809	5.132642	345.6128	0	2						359.6555	2.016068	2.599677	
349.841	5.164107	345.6443	0	2						359.6092	1.12492	2.602547	
349.860	5.182726	345.6629	0	2						359.5357	0.3456652	2.638156	
349.878	5.201396	345.6815	0	2						359.4073	359.5623	2.552948	
349.897	5.21929	345.6995	0	2						359.4052	358.9066	2.427091	
349.919	5.241895	345.7221	0	2						359.3571	358.2873	2.292822	
349.941	5.264389	345.7446	0	2						359.406	357.8996	2.163096	
349.966	5.288907	345.7691	0	2						359.3928	357.5559	1.959619	
349.987	5.30973	345.7899	0	2						359.4306	357.2801	1.712511	
350.013	5.335479	345.8156	0	2						359.4906	357.1452	1.485628	
350.032	5.355554	345.8357	0	2						359.5739	357.0525	1.231533	
350.055	5.378518	345.8587	0	2						359.7692	357.0853	0.9107557	
350.080	5.402125	345.8823	0	2						359.8483	357.1279	0.6096099	
350.100	5.423384	345.9036	0	2						0.06229787	357.2242	0.2514703	
350.122	5.445098	345.9253	0	2						0.2248814	357.4168	359.8809	
350.144	5.467721	345.9479	0	2						0.4218145	357.5998	359.5705	
350.171	5.493772	345.9739	0	2						0.6770248	357.7444	359.3223	
350.190	5.513479	345.9937	0	2						0.8808722	357.9924	359.047	
350.210	5.533822	346.014	0	2						1.048427	358.168	358.782	
350.233	5.557058	346.0372	0	2						1.161751	358.3254	358.5536	
350.257	5.580178	346.0603	0	2						1.360105	358.4712	358.335	
350.277	5.600666	346.0808	0	2						1.437785	358.6206	358.1234	
350.302	5.625332	346.1055	0	2						1.532039	358.7206	357.9781	
350.322	5.645078	346.1252	0	2						1.671356	358.8489	357.8772	
350.355	5.645078	346.1564	1	5	180	0	-2.622683E-08	0	-0.3	-0.02677248	0.01331017	0.01875892	
350.355	5.676241	346.1564	0	5						1.673691	358.904	357.7923	
350.373	5.696328	346.1765	0	5						1.715123	358.9393	357.7461	
350.393	5.716059	346.1962	0	5						1.647248	359.0096	357.7186	
350.410	5.733043	346.2132	0	5						1.651067	359.0326	357.7193	
350.429	5.752275	346.2325	0	5						1.623871	359.0719	357.7042	
350.449	5.772055	346.2522	0	5						1.580889	359.1275	357.7338	
350.473	5.79477	346.2749	0	5						1.539335	359.1964	357.765	
350.492	5.81552	346.2957	0	5						1.513135	359.1902	357.8031	
350.517	5.839512	346.3197	0	5						1.447662	359.2031	357.8741	
350.539	5.862156	346.3423	0	5						1.278242	359.2242	358.0437	
350.561	5.883678	346.3639	0	5						1.251873	359.2115	358.0532	
350.580	5.903734	346.3839	0	5						1.183148	359.2336	358.1244	
350.595	5.919347	346.3995	0	5						1.090646	359.2627	358.22	
350.611	5.934466	346.4146	0	5						1.040272	359.2778	358.2984	
350.632	5.955503	346.4357	0	5						0.9880902	359.3071	358.346	
350.654	5.977473	346.4576	0	5						0.8916087	359.364	358.3965	
350.675	5.998919	346.4791	0	5						0.7727781	359.3971	358.453	
350.700	6.023395	346.5036	0	5						0.7670729	359.5028	358.469	
350.721	6.044393	346.5246	0	5						0.6909444	359.9135	358.523	
350.744	6.067443	346.5476	0	5						0.6707336	0.5062103	358.5834	
350.766	6.089031	346.5692	0	5						0.6659384	1.454907	358.6261	
350.791	6.113383	346.5935	0	5						0.6320096	2.633824	358.6502	
350.826	6.148813	346.629	0	5						0.5677047	4.278796	358.7001	
350.848	6.17113	346.6513	0	5						0.4877702	6.340628	358.7421	
350.867	6.190673	346.6708	0	5						0.4726762	8.485574	358.8199	
350.888	6.211139	346.6913	0	5						0.4320102	10.78432	358.8768	
350.907	6.230162	346.7103	0	5						0.4276802	13.19499	358.9294	
350.925	6.247948	346.7281	0	5						0.4173603	15.53298	358.9307	
350.943	6.266569	346.7467	0	5						0.3760645	17.75224	358.9152	
350.963	6.28653	346.7667	0	5						0.3710524	19.8768	358.864	
350.984	6.307752	346.7879	0	5						0.3910038	21.75603	358.8276	
351.001	6.325089	346.8053	0	5						0.4394907	23.31981	358.67	
351.024	6.34779	346.828	0	5						0.4308258	24.97545	358.5995	
351.045	6.36797	346.8481	0	5						0.5061195	26.39545	358.4558	
351.066	6.3889	346.8691	0	5						0.5565471	27.82889	358.2772	
351.087	6.409833	346.89	0	5						0.6000871	27.81767	358.2831	
351.105	6.428926	346.9091	0	5						0.6719737	29.1981	358.1188	
351.126	6.449453	346.9296	0	5						0.7965655	30.65156	357.9302	
351.148	6.471149	346.9513	0	5						0.8875335	32.1772	357.7065	
351.174	6.496643	346.9768	0	5						0.9832959	33.82029	357.5456	
351.195	6.518717	346.9989	0	5						1.080353	35.48317	357.3755	
351.213	6.536482	347.0167	0	5						1.232048	37.12469	357.1803	
351.233	6.556334	347.0365	0	5						1.306504	38.70526	357.0224	
351.254	6.576727	347.0569	0	5						1.385831	40.29855	356.8444	
351.294	6.616148	347.0963	0	5						1.403624	41.91843	356.7114	
351.311	6.634859	347.115	0	5						1.413392	43.41538	356.5754	
351.338	6.66185	347.142	0	5						1.407628	44.90537	356.4161	
351.359	6.682299	347.1625	0	5						1.400589	46.36037	356.2967	
351.377	6.700392	347.1806	0	5						1.354324	47.76227	356.1616	
351.395	6.718358	347.1985	0	5						1.306794	49.14188	356.0118	
351.415	6.737767	347.2179	0	5						1.21353	50.45478	355.9192	
351.434	6.756632	347.2368	0	5						1.114749	51.71424	355.8234	
