Time	keytime	time-time	keypress	target id	target_lon	target_lat	target_x	target_y	target_z	hmd_rx	hmd_ry	hmd_rz	
486.390	0.02531353	482.5316	0	9						0.001691703	-0.002201843	-0.007980955	
486.412	0.04865254	482.5549	0	9						0.001761373	-0.002184961	-0.008048168	
486.430	0.06655829	482.5728	0	9						0.001895227	-0.002105065	-0.008099964	
486.452	0.08946747	482.5958	0	9						0.002042189	-0.001986821	-0.008127534	
486.475	0.1118022	482.6181	0	9						0.002255804	-0.001784853	-0.008066505	
486.494	0.1306747	482.637	0	9						0.002431527	-0.001652848	-0.008048016	
486.517	0.1534278	482.6597	0	9						0.002550907	-0.001642848	-0.007994357	
486.541	0.1772089	482.6835	0	9						0.002677777	-0.001604087	-0.007934741	
486.566	0.2020397	482.7083	0	9						0.002750535	-0.001549184	-0.007940986	
486.584	0.2207679	482.7271	0	9						0.002843679	-0.001510655	-0.007953325	
486.616	0.251674	482.758	0	9						0.002928996	-0.001474405	-0.007971179	
486.638	0.2743244	482.7806	0	9						0.00304731	-0.001496765	-0.008041472	
486.655	0.2914163	482.7977	0	9						0.003077212	-0.001565556	-0.008151047	
486.674	0.3108648	482.8172	0	9						0.003101677	-0.001613077	-0.008233058	
486.695	0.331769	482.8381	0	9						0.003118332	-0.001674211	-0.008342524	
486.719	0.3553379	482.8616	0	9						0.0031216	-0.001716071	-0.008453878	
486.741	0.3780911	482.8844	0	9						0.003133055	-0.001753691	-0.008512028	
486.763	0.3995149	482.9058	0	9						0.003154259	-0.001776571	-0.008466828	
486.786	0.4225943	482.9289	0	9						0.003176581	-0.001818968	-0.008368713	
486.809	0.446215	482.9525	0	9						0.003201104	-0.001890906	-0.008165581	
486.833	0.4696927	482.976	0	9						0.003193263	-0.001963821	-0.007908322	
486.853	0.4904594	482.9968	0	9						0.003181826	-0.002014784	-0.007693649	
486.874	0.5109007	483.0172	0	9						0.003173734	-0.002072355	-0.007484883	
486.901	0.5365437	483.0428	0	9						0.003147617	-0.002127076	-0.007253245	
486.940	0.5762461	483.0826	0	9						0.003108843	-0.002167371	-0.007060038	
486.960	0.5970346	483.1033	0	9						0.002990454	-0.002198649	-0.006695784	
486.982	0.6186085	483.1249	0	9						0.002927411	-0.002223671	-0.006595559	
487.002	0.6387522	483.1451	0	9						0.002851244	-0.002285105	-0.006545214	
487.022	0.6595751	483.1659	0	9						0.002770487	-0.0023451	-0.006502136	
487.042	0.6781232	483.1844	0	9						0.002701461	-0.002385717	-0.006442655	
487.064	0.7006477	483.2069	0	9						0.002639017	-0.002400036	-0.006383903	
487.086	0.7229125	483.2292	0	9						0.002616771	-0.002377144	-0.006346205	
487.111	0.7472534	483.2535	0	9						0.002594814	-0.002344389	-0.006310338	
487.135	0.7722441	483.2785	0	9						0.002576746	-0.002296972	-0.00628748	
487.153	0.790204	483.2965	0	9						0.002551668	-0.002256988	-0.006274263	
487.175	0.812118	483.3184	0	9						0.002526782	-0.002244906	-0.006270009	
487.196	0.8329266	483.3392	0	9						0.002446328	-0.002240709	-0.006266531	
487.213	0.8504255	483.3567	0	9						0.002381654	-0.002238036	-0.006275731	
487.237	0.8741046	483.3804	0	9						0.002305289	-0.002229025	-0.006309724	
487.259	0.8960313	483.4023	0	9						0.0021892	-0.00220541	-0.006375217	
487.278	0.9146091	483.4209	0	9						0.00205132	-0.002192662	-0.006444327	
487.299	0.9356638	483.442	0	9						0.001887243	-0.002166994	-0.006511785	
487.316	0.9528351	483.4591	0	9						0.001715977	-0.002139032	-0.006584479	
487.337	0.9734972	483.4798	0	9						0.00158114	-0.002153577	-0.006632772	
487.355	0.9922077	483.4985	0	9						0.001435671	-0.002162026	-0.006699805	
487.374	1.010687	483.517	0	9						0.001332416	-0.002161242	-0.006765594	
487.392	1.028545	483.5348	0	9						0.001240014	-0.002153906	-0.006853268	
487.412	1.048254	483.5545	0	9						0.00116194	-0.002155127	-0.006911531	
487.428	1.065072	483.5714	0	9						0.001108418	-0.002132164	-0.006994269	
487.448	1.085402	483.5917	0	9						0.001070947	-0.002123789	-0.007059123	
487.469	1.105915	483.6122	0	9						0.0009878902	-0.002142887	-0.007148138	
487.485	1.122508	483.6288	0	9						0.0008783564	-0.002169651	-0.007239934	
487.506	1.142893	483.6492	0	9						0.0008632727	-0.002177605	-0.007278432	
487.529	1.165365	483.6717	0	9						0.0008221231	-0.002195316	-0.007336374	
487.547	1.184322	483.6906	0	9						0.0007690117	-0.002164004	-0.007414234	
487.568	1.205283	483.7116	0	9						0.0007290356	-0.0021571	-0.007505896	
487.590	1.22732	483.7336	0	9						0.0007074252	-0.002138725	-0.007572422	
487.629	1.265282	483.7716	0	9						0.0006872341	-0.00213605	-0.007605485	
487.648	1.285217	483.7915	0	9						0.0006715134	-0.002091484	-0.007606577	
487.666	1.303018	483.8093	0	9						0.0006628223	-0.002081367	-0.007599059	
487.695	1.331162	483.8375	0	9						0.0006922334	-0.002060909	-0.007622245	
487.712	1.348757	483.855	0	9						0.0007388927	-0.002063965	-0.007659184	
487.732	1.368596	483.8749	0	9						0.0007834546	-0.002082092	-0.007686384	
487.753	1.38962	483.8959	0	9						0.000870157	-0.002099176	-0.007705637	
487.772	1.409119	483.9154	0	9						0.0009603202	-0.002100006	-0.00770546	
487.793	1.430305	483.9366	0	9						0.001049594	-0.002093287	-0.007693551	
487.812	1.448943	483.9552	0	9						0.001130395	-0.002074495	-0.007677132	
487.831	1.46778	483.9741	0	9						0.001198664	-0.002072653	-0.007623002	
487.848	1.485063	483.9914	0	9						0.001266262	-0.002065965	-0.007577973	
487.868	1.505141	484.0114	0	9						0.001315252	-0.002072094	-0.007538822	
487.886	1.523042	484.0293	0	9						0.001367431	-0.002091441	-0.007508839	
487.908	1.545109	484.0514	0	9						0.001434404	-0.002136644	-0.00751889	
487.929	1.565874	484.0722	0	9						0.001499608	-0.002196347	-0.007550665	
487.947	1.58374	484.09	0	9						0.001583965	-0.002250623	-0.007582086	
487.966	1.603451	484.1097	0	9						0.001676542	-0.002284138	-0.007619261	
487.989	1.625236	484.1315	0	9						0.001785807	-0.00231163	-0.007654797	
488.007	1.643792	484.1501	0	9						0.001909204	-0.002336442	-0.00769294	
488.032	1.668416	484.1747	0	9						0.001996845	-0.002341338	-0.007706654	
488.050	1.68619	484.1925	0	9						0.002118208	-0.002346111	-0.007697387	
488.075	1.712095	484.2184	0	9						0.002201699	-0.002294743	-0.007692157	
488.097	1.734105	484.2404	0	9						0.00231608	-0.002192456	-0.007676522	
488.118	1.754724	484.261	0	9						0.002394143	-0.002158208	-0.00767918	
488.142	1.779057	484.2853	0	9						0.002444734	-0.002170281	-0.00768548	
488.162	1.799165	484.3055	0	9						0.002481662	-0.002171695	-0.007701326	
488.194	1.829828	484.3361	0	9						0.002507012	-0.002185935	-0.007728714	
488.211	1.847375	484.3537	0	9						0.002507933	-0.002185612	-0.007811978	
488.230	1.867089	484.3734	0	9						0.002514384	-0.002175317	-0.007882399	
488.252	1.889403	484.3957	0	9						0.002507038	-0.002149581	-0.007963186	
488.292	1.928913	484.4352	0	9						0.002506312	-0.002127335	-0.008049108	
488.313	1.949328	484.4556	0	9						0.002510253	-0.002105405	-0.008191383	
488.334	1.971235	484.4775	0	9						0.002520218	-0.002066515	-0.008218631	
488.357	1.993434	484.4997	0	9						0.002535452	-0.001999162	-0.008230997	
488.380	2.016634	484.5229	0	9						0.002570428	-0.001936625	-0.008218211	
488.402	2.038965	484.5453	0	9						0.002606616	-0.001870502	-0.008252663	
488.427	2.063478	484.5698	0	9						0.00263906	-0.001824223	-0.008259892	
488.450	2.087006	484.5933	0	9						0.002697685	-0.001811469	-0.008239088	
488.470	2.106801	484.6131	0	9						0.002743258	-0.001792853	-0.008243001	
488.487	2.124238	484.6305	0	9						0.002788287	-0.001816137	-0.008229227	
488.506	2.142501	484.6488	0	9						0.002808998	-0.001819041	-0.008232194	
488.525	2.16247	484.6688	0	9						0.002834863	-0.001838758	-0.008233158	
488.543	2.179542	484.6858	0	9						0.002852205	-0.001863722	-0.008211819	
488.563	2.200153	484.7065	0	9						0.00286075	-0.001889687	-0.008178344	
488.584	2.220511	484.7268	0	9						0.00288377	-0.001875728	-0.008129737	
488.600	2.237184	484.7435	0	9						0.002924763	-0.001870735	-0.00808856	
488.621	2.258104	484.7644	0	9						0.003001466	-0.001848546	-0.008046712	
488.641	2.277981	484.7843	0	9						0.003134314	-0.00183005	-0.007991548	
488.658	2.294745	484.801	0	9						0.003336627	-0.001870399	-0.00788278	
488.677	2.313679	484.82	0	9						0.003516425	-0.001844098	-0.00785934	
488.695	2.332051	484.8383	0	9						0.003731295	-0.00189004	-0.007742359	
488.720	2.35593	484.8622	0	9						0.004062057	-0.00189649	-0.007646633	
488.749	2.386059	484.8923	0	9						0.004374825	-0.001919653	-0.007539272	
488.767	2.4037	484.91	0	9						0.004700099	-0.00196952	-0.007471321	
488.786	2.423337	484.9296	0	9						0.00499706	-0.002056991	-0.007372473	
488.805	2.44198	484.9483	0	9						0.005257343	-0.002086095	-0.007333177	
488.831	2.467693	484.974	0	9						0.005570619	-0.002283288	-0.007236409	
488.851	2.488132	484.9944	0	9						0.00581021	-0.002394686	-0.007157451	
488.873	2.508989	485.0153	0	9						0.006044336	-0.002498632	-0.006988021	
488.900	2.536224	485.0425	0	9						0.006226055	-0.002460207	-0.006919545	
488.920	2.55689	485.0632	0	9						0.006386325	-0.002500365	-0.006770528	
488.940	2.575672	485.082	0	9						0.006487489	-0.002563332	-0.006670973	
488.979	2.615406	485.1217	0	9						0.006572797	-0.002603924	-0.006591534	
488.999	2.635564	485.1418	0	9						0.006741367	-0.002763262	-0.006318929	
489.016	2.653525	485.1598	0	9						0.006817698	-0.002812667	-0.006171335	
489.035	2.671838	485.1781	0	9						0.006823745	-0.002838233	-0.006091671	
489.057	2.693698	485.2	0	9						0.00683162	-0.002824015	-0.006003531	
489.077	2.71382	485.2201	0	9						0.006799422	-0.00286071	-0.005937632	
489.095	2.731623	485.2379	0	9						0.006786276	-0.002863647	-0.005873772	
489.117	2.731623	485.2576	1	17	120	30	0.375	0.25	-0.2165064	0.006768229	-0.002870708	-0.005816658	
489.118	2.751267	485.2576	0	17						0.006768229	-0.002870708	-0.005816658	
489.138	2.775124	485.2814	0	17						0.006713022	-0.002869738	-0.005781178	
489.162	2.79835	485.3046	0	17						0.006660704	-0.002860457	-0.00572243	
489.183	2.8204	485.3267	0	17						0.006590597	-0.00282987	-0.00570095	
489.207	2.843949	485.3503	0	17						0.006527577	-0.002780949	-0.005738516	
489.231	2.868364	485.3747	0	17						0.006431714	-0.002739308	-0.005778437	
489.258	2.894626	485.4009	0	17						0.006326596	-0.002711601	-0.005827868	
489.276	2.912681	485.419	0	17						0.006224334	-0.002675705	-0.005911537	
489.296	2.932272	485.4386	0	17						0.006127623	-0.002655395	-0.005990135	
489.315	2.95226	485.4586	0	17						0.005989812	-0.002640122	-0.006091981	
489.340	2.976347	485.4826	0	17						0.005853303	-0.002609061	-0.00621099	
489.362	2.999311	485.5056	0	17						0.005678471	-0.00256938	-0.006386054	
489.386	3.022681	485.529	0	17						0.005535584	-0.002547138	-0.006487656	
489.408	3.045066	485.5514	0	17						0.005345277	-0.002506207	-0.0066461	
489.430	3.06656	485.5728	0	17						0.005192604	-0.002464302	-0.006762045	
489.452	3.08883	485.5951	0	17						0.00503958	-0.002428379	-0.006835934	
489.475	3.112113	485.6184	0	17						0.004859403	-0.002388677	-0.006901329	
489.498	3.134504	485.6408	0	17						0.004695605	-0.002357285	-0.006939623	
489.519	3.155777	485.6621	0	17						0.004495603	-0.002332494	-0.006959825	
489.543	3.180342	485.6866	0	17						0.004393823	-0.002331783	-0.006980231	
489.564	3.200953	485.7072	0	17						0.004259019	-0.002339657	-0.006972698	
489.586	3.223413	485.7297	0	17						0.004130259	-0.00237008	-0.006925877	
489.610	3.246609	485.7529	0	17						0.004103262	-0.002402819	-0.006824674	
489.628	3.264647	485.7709	0	17						0.00429884	-0.002479391	-0.006617287	
489.647	3.283594	485.7899	0	17						0.004462323	-0.002429521	-0.006625494	
489.687	3.323828	485.8301	0	17						0.00494592	-0.002455504	-0.006468754	
489.705	3.341881	485.8482	0	17						0.006001957	-0.002433531	-0.006251919	
489.726	3.362416	485.8687	0	17						0.00806478	-0.002382857	-0.005800637	
489.745	3.380769	485.8871	0	17						0.009632441	-0.002348204	-0.005477049	
489.772	3.408762	485.915	0	17						0.01147319	-0.002383955	-0.005136747	
489.790	3.427132	485.9334	0	17						0.01363474	-0.00247519	-0.004852744	
489.810	3.446423	485.9527	0	17						0.01480735	-0.002584565	-0.004725135	
489.827	3.46412	485.9704	0	17						0.01828164	-0.002904861	-0.004295945	
489.846	3.483188	485.9895	0	17						0.01831255	-0.002882293	-0.004381006	
489.863	3.500118	486.0064	0	17						0.02195868	-0.003185751	-0.004051499	
489.883	3.519567	486.0258	0	17						0.02318683	-0.003277077	-0.004014625	
489.903	3.540206	486.0465	0	17						0.02570783	-0.003504453	-0.003946545	
489.924	3.561502	486.0678	0	17						0.02820119	-0.003793527	-0.003887767	
489.943	3.579978	486.0863	0	17						0.03064721	-0.004015819	-0.003946391	
489.965	3.60176	486.1081	0	17						0.03307507	-0.004338276	-0.003927993	
489.989	3.625226	486.1315	0	17						0.03554885	-0.004689152	-0.003998674	
490.009	3.645736	486.152	0	17						0.0379029	-0.005004954	-0.004015495	
490.029	3.665678	486.172	0	17						0.04027849	-0.005314645	-0.004112495	
490.054	3.690957	486.1972	0	17						0.04260058	-0.005563758	-0.00428552	
490.076	3.713261	486.2195	0	17						0.04489921	-0.005825234	-0.004611474	
490.097	3.733817	486.2401	0	17						0.04721541	-0.00610923	-0.004941359	
490.118	3.755612	486.2619	0	17						0.04949166	-0.006506682	-0.005238758	
490.141	3.778126	486.2844	0	17						0.05165316	-0.006830845	-0.005687213	
490.166	3.802277	486.3086	0	17						0.05387053	-0.007197001	-0.006221488	
490.189	3.825579	486.3319	0	17						0.05600569	-0.007620308	-0.006839255	
490.213	3.849519	486.3558	0	17						0.05812024	-0.008086441	-0.007439609	
490.235	3.871518	486.3778	0	17						0.06022579	-0.008548398	-0.008078516	
490.253	3.890031	486.3963	0	17						0.06234454	-0.009072763	-0.00881869	
490.282	3.918149	486.4244	0	17						0.06438621	-0.009587269	-0.009440264	
490.300	3.936637	486.4429	0	17						0.06647961	-0.01013663	-0.010364	
490.320	3.957217	486.4635	0	17						0.06838813	-0.01070403	-0.01087052	
490.342	3.978466	486.4847	0	17						0.07026932	-0.01128069	-0.01164154	
490.381	4.017048	486.5233	0	17						0.07212418	-0.01185308	-0.01238258	
490.399	4.034997	486.5413	0	17						0.07399362	-0.01210461	-0.01383295	
490.418	4.055046	486.5613	0	17						0.07568813	-0.01229727	-0.01436416	
490.439	4.0762	486.5825	0	17						0.07724787	-0.01231614	-0.01504428	
490.459	4.096403	486.6027	0	17						0.07871518	-0.01209782	-0.01570322	
490.477	4.114181	486.6205	0	17						0.08004886	-0.01174718	-0.01635482	
490.496	4.133435	486.6397	0	17						0.08130946	-0.01122781	-0.01687058	
490.519	4.155419	486.6617	0	17						0.08240736	-0.01064485	-0.01741756	
490.539	4.175865	486.6822	0	17						0.08331744	-0.0100083	-0.01818718	
490.556	4.193333	486.6996	0	17						0.08411104	-0.009353943	-0.01901284	
490.576	4.213297	486.7196	0	17						0.08475012	-0.008625842	-0.01965184	
490.599	4.235887	486.7422	0	17						0.08526027	-0.008008371	-0.02051651	
490.620	4.256702	486.763	0	17						0.08569631	-0.007436427	-0.02143272	
490.641	4.278387	486.7847	0	17						0.0855918	-0.007572857	-0.02266546	
490.663	4.299284	486.8056	0	17						0.08600274	-0.006971462	-0.02373673	
490.686	4.322713	486.829	0	17						0.08634787	-0.006415186	-0.02492476	
490.705	4.341548	486.8478	0	17						0.08661236	-0.005801714	-0.02612753	
490.724	4.361356	486.8676	0	17						0.08675344	-0.005076325	-0.02721418	
490.746	4.383031	486.8893	0	17						0.08675049	-0.004377758	-0.02808569	
490.765	4.401955	486.9082	0	17						0.08659942	-0.003550066	-0.02899799	
490.787	4.423356	486.9297	0	17						0.08631495	-0.002672525	-0.02943914	
490.809	4.44503	486.9513	0	17						0.08588678	-0.001842767	-0.02972502	
490.840	4.47619	486.9825	0	17						0.08522286	-0.000981112	-0.03011258	
490.859	4.495353	487.0016	0	17						0.08429748	-1.136921E-05	-0.03081737	
490.878	4.515193	487.0215	0	17						0.08337479	0.0009451825	-0.03097293	
490.896	4.533564	487.0399	0	17						0.08233083	0.002017942	-0.03090576	
490.919	4.555569	487.0619	0	17						0.08119736	0.002985891	-0.03078368	
490.943	4.579623	487.0859	0	17						0.07991188	0.003841324	-0.03076189	
490.965	4.601419	487.1077	0	17						0.0785227	0.004736559	-0.03093894	
490.987	4.623269	487.1295	0	17						0.07711399	0.005575699	-0.03099478	
491.009	4.645306	487.1516	0	17						0.07568833	0.006368382	-0.03087602	
491.032	4.668925	487.1752	0	17						0.07422132	0.0069847	-0.03077596	
491.053	4.68988	487.1962	0	17						0.07278859	0.007531094	-0.03083291	
491.095	4.731594	487.2379	0	17						0.07149145	0.007969539	-0.0306742	
491.117	4.752944	487.2592	0	17						0.07015982	0.008249773	-0.03134342	
491.134	4.770787	487.2771	0	17						0.06892553	0.008454088	-0.03100244	
491.153	4.790088	487.2964	0	17						0.06779584	0.008479699	-0.03030502	
491.173	4.810131	487.3164	0	17						0.06670476	0.008475517	-0.02983119	
491.192	4.828575	487.3349	0	17						0.06567437	0.008427981	-0.0292384	
491.213	4.848903	487.3552	0	17						0.06476326	0.008323986	-0.028573	
491.236	4.872276	487.3786	0	17						0.06399456	0.008228224	-0.02802919	
491.256	4.893083	487.3994	0	17						0.06332327	0.008099139	-0.02747614	
491.274	4.911125	487.4174	0	17						0.06276561	0.007916397	-0.02686556	
491.297	4.934059	487.4403	0	17						0.06221681	0.007651944	-0.02608052	
491.320	4.956758	487.463	0	17						0.06174799	0.007242303	-0.02542082	
491.350	4.986631	487.4929	0	17						0.06130628	0.006816378	-0.02482418	
491.368	5.004794	487.5111	0	17						0.06107466	0.006471605	-0.02454549	
491.387	5.024431	487.5307	0	17						0.06077754	0.006010811	-0.02366165	
491.409	5.045556	487.5518	0	17						0.06055839	0.005723762	-0.02313984	
491.427	5.064257	487.5706	0	17						0.06046003	0.005517295	-0.02258904	
491.448	5.084533	487.5908	0	17						0.06061906	0.005799863	-0.0231769	
491.467	5.103354	487.6096	0	17						0.06069603	0.005877678	-0.02329687	
491.487	5.123298	487.6296	0	17						0.06059512	0.00543722	-0.02203991	
491.509	5.14528	487.6516	0	17						0.06070796	0.005178079	-0.02151183	
491.528	5.165224	487.6715	0	17						0.0609249	0.004855838	-0.02093787	
491.547	5.184092	487.6904	0	17						0.06116924	0.004661403	-0.02032105	
491.568	5.204702	487.711	0	17						0.06142887	0.004504352	-0.01948746	
491.584	5.221552	487.7278	0	17						0.061869	0.004106698	-0.01783937	
491.603	5.24041	487.7467	0	17						0.06210977	0.004250981	-0.01783643	
491.623	5.259823	487.7661	0	17						0.06253443	0.004169792	-0.01698473	
491.643	5.279927	487.7862	0	17						0.06309993	0.00395013	-0.01631223	
491.664	5.30113	487.8074	0	17						0.06371047	0.003490858	-0.0158167	
491.686	5.322451	487.8287	0	17						0.06423473	0.00306918	-0.01546905	
491.706	5.342582	487.8489	0	17						0.06446114	0.00329167	-0.01616553	
491.724	5.361195	487.8675	0	17						0.0649806	0.002916555	-0.01584042	
491.765	5.400665	487.907	0	17						0.06552937	0.002620533	-0.01581328	
491.786	5.423274	487.9296	0	17						0.06630071	0.002642498	-0.01627573	
491.806	5.443514	487.9498	0	17						0.06696393	0.002586878	-0.01642713	
491.825	5.46179	487.9681	0	17						0.06759112	0.002478198	-0.01654971	
491.846	5.482537	487.9888	0	17						0.06816871	0.002427597	-0.01676714	
491.864	5.50089	488.0072	0	17						0.06901489	0.002152748	-0.01680089	
491.894	5.529809	488.0361	0	17						0.06943904	0.002247342	-0.01718475	
491.913	5.549982	488.0563	0	17						0.0699437	0.002364927	-0.0176675	
491.932	5.568779	488.0751	0	17						0.07037604	0.002426601	-0.01803009	
491.952	5.588932	488.0952	0	17						0.07072066	0.002513178	-0.01827634	
491.970	5.606823	488.1131	0	17						0.07118476	0.002665474	-0.0187045	
491.989	5.625972	488.1323	0	17						0.07166474	0.002695786	-0.01907301	
492.011	5.647511	488.1538	0	17						0.07211655	0.002844112	-0.01957653	
492.028	5.665651	488.1719	0	17						0.07268148	0.003080442	-0.02013075	
492.050	5.686275	488.1926	0	17						0.07312361	0.003174196	-0.02056515	
492.070	5.707181	488.2135	0	17						0.07353112	0.00334627	-0.02105832	
492.093	5.729468	488.2357	0	17						0.07410357	0.003627824	-0.02161457	
492.118	5.754368	488.2607	0	17						0.07463724	0.00405501	-0.02217803	
492.139	5.776329	488.2826	0	17						0.0754364	0.004401806	-0.02296	
492.163	5.799858	488.3062	0	17						0.07594638	0.004633814	-0.0233831	
492.186	5.823259	488.3296	0	17						0.07670827	0.004951799	-0.02389128	
