Time	keytime	time-time	keypress	target id	target_lon	target_lat	target_x	target_y	target_z	hmd_rx	hmd_ry	hmd_rz	
748.899	254.1338	743.256	0	3						0.005472415	0.002803158	-0.01926174	
748.915	254.1502	743.2724	0	3						0.005488739	0.002804276	-0.01925496	
748.929	254.1642	743.2864	0	3						0.005492126	0.002796395	-0.01925151	
748.940	254.1753	743.2975	0	3						0.005514279	0.002786231	-0.0192393	
748.951	254.1858	743.308	0	3						0.005530212	0.002781929	-0.01921875	
748.961	254.1962	743.3184	0	3						0.005548526	0.002787469	-0.01921207	
748.974	254.2086	743.3307	0	3						0.00555651	0.002791701	-0.01920166	
748.984	254.2188	743.341	0	3						0.005563085	0.002797355	-0.01919205	
748.995	254.2309	743.3531	0	3						0.005571795	0.002799792	-0.01919017	
749.008	254.2431	743.3652	0	3						0.005581754	0.0028032	-0.0191871	
749.019	254.2545	743.3766	0	3						0.00558272	0.00280285	-0.01919404	
749.029	254.2639	743.386	0	3						0.005592283	0.002786125	-0.01919704	
749.040	254.2753	743.3975	0	3						0.005591189	0.002774805	-0.01921142	
749.051	254.2868	743.4089	0	3						0.005599416	0.00275992	-0.01922747	
749.064	254.2979	743.4201	0	3						0.00559748	0.002744069	-0.01924621	
749.074	254.3092	743.4314	0	3						0.005603584	0.002712673	-0.01927031	
749.086	254.3205	743.4426	0	3						0.005583391	0.002713233	-0.01930598	
749.096	254.3313	743.4534	0	3						0.005590603	0.002692601	-0.01931593	
749.107	254.342	743.4642	0	3						0.005570762	0.002671052	-0.0193389	
749.118	254.3533	743.4755	0	3						0.005557638	0.002657657	-0.01936727	
749.130	254.3656	743.4878	0	3						0.005546189	0.002643408	-0.01938816	
749.140	254.3755	743.4977	0	3						0.005529527	0.002638014	-0.01942422	
749.152	254.3872	743.5094	0	3						0.00552443	0.002613186	-0.01944398	
749.163	254.3989	743.5211	0	3						0.005512636	0.002610368	-0.01947037	
749.173	254.4089	743.5311	0	3						0.005497423	0.002612352	-0.01949842	
749.185	254.4203	743.5425	0	3						0.005490404	0.002597687	-0.01951658	
749.197	254.4319	743.5541	0	3						0.005473979	0.002620445	-0.0195558	
749.212	254.4469	743.5691	0	3						0.00547799	0.002609449	-0.0195729	
749.227	254.4607	743.5829	0	3						0.005473215	0.002617378	-0.01960019	
749.236	254.4718	743.594	0	3						0.005476959	0.002616377	-0.01961134	
749.248	254.4829	743.605	0	3						0.005464307	0.002622226	-0.01961461	
749.253	254.4886	743.6107	0	3						0.005456604	0.002636475	-0.01962053	
749.263	254.4982	743.6204	0	3						0.005467214	0.00263264	-0.019623	
749.272	254.5074	743.6296	0	3						0.005463578	0.002633362	-0.0196261	
749.283	254.5184	743.6406	0	3						0.005453241	0.002637342	-0.01962661	
749.294	254.5292	743.6514	0	3						0.0054572	0.002642077	-0.01963223	
749.308	254.5438	743.666	0	3						0.005440339	0.002649354	-0.01963988	
749.317	254.5528	743.675	0	3						0.005430996	0.00265491	-0.01964736	
749.328	254.5634	743.6856	0	3						0.005416077	0.002654385	-0.01964589	
749.342	254.5771	743.6993	0	3						0.005413773	0.002656331	-0.01964003	
749.351	254.5867	743.7089	0	3						0.005383774	0.002660432	-0.01962537	
749.378	254.6134	743.7356	0	3						0.005385202	0.00267654	-0.01963396	
749.394	254.6292	743.7514	0	3						0.005350574	0.002682375	-0.01961775	
749.407	254.6427	743.765	0	3						0.005319219	0.002673009	-0.01960572	
749.415	254.6506	743.7728	0	3						0.005300649	0.002669905	-0.0196055	
749.427	254.6619	743.7841	0	3						0.00527877	0.002665059	-0.01960288	
749.439	254.6745	743.7967	0	3						0.005288661	0.002646658	-0.01960222	
749.448	254.6836	743.8058	0	3						0.005253438	0.002635784	-0.0195869	
749.460	254.6951	743.8173	0	3						0.005246094	0.002626018	-0.01957859	
749.471	254.7063	743.8285	0	3						0.005220455	0.002612066	-0.01956701	
749.480	254.7159	743.8381	0	3						0.005198646	0.002598819	-0.01955949	
749.492	254.7271	743.8493	0	3						0.005178828	0.002578548	-0.01954748	
749.504	254.7391	743.8613	0	3						0.005153649	0.002559471	-0.019542	
749.516	254.7504	743.8726	0	3						0.005112537	0.002544509	-0.01954281	
749.524	254.759	743.8812	0	3						0.005108781	0.002531749	-0.01954281	
749.534	254.7693	743.8915	0	3						0.005083673	0.002515728	-0.01954052	
749.546	254.7809	743.9031	0	3						0.005043779	0.002484801	-0.01953475	
749.557	254.7927	743.9149	0	3						0.005017557	0.002476582	-0.01953781	
749.567	254.8027	743.9249	0	3						0.004972994	0.00244539	-0.01952869	
749.576	254.8114	743.9336	0	3						0.004977293	0.002453577	-0.01953143	
749.588	254.8236	743.9459	0	3						0.004954363	0.002443871	-0.01952693	
749.599	254.835	743.9573	0	3						0.004893997	0.002426712	-0.01951527	
749.608	254.8438	743.9661	0	3						0.004862856	0.002422349	-0.01951521	
749.620	254.8556	743.9778	0	3						0.00483571	0.00241146	-0.01951122	
749.632	254.8674	743.9896	0	3						0.004792389	0.002405402	-0.01950881	
749.641	254.8769	743.9991	0	3						0.004734587	0.002384494	-0.01949401	
749.653	254.8883	744.0105	0	3						0.004693426	0.002372166	-0.0194849	
749.665	254.9003	744.0225	0	3						0.004646175	0.002365143	-0.01948214	
749.675	254.9108	744.033	0	3						0.004611087	0.002373265	-0.01947869	
749.687	254.9224	744.0446	0	3						0.004582901	0.002373718	-0.01948409	
749.702	254.9371	744.0593	0	3						0.004539788	0.002373986	-0.01948996	
749.710	254.9443	744.0665	0	3						0.004453797	0.002377672	-0.0195183	
749.719	254.9544	744.0766	0	3						0.00441365	0.002388317	-0.01953456	
749.730	254.9651	744.0873	0	3						0.004416481	0.002378328	-0.01952693	
749.742	254.977	744.0992	0	3						0.004346832	0.00237207	-0.01954534	
749.752	254.9872	744.1094	0	3						0.004319482	0.002369751	-0.01955131	
749.762	254.9977	744.1199	0	3						0.004257526	0.002368948	-0.01956043	
749.776	255.0115	744.1337	0	3						0.004226572	0.002384614	-0.01956717	
749.785	255.0207	744.1429	0	3						0.004160687	0.002407762	-0.01957386	
749.797	255.0318	744.154	0	3						0.004119847	0.002422463	-0.01957771	
749.808	255.0439	744.166	0	3						0.00403497	0.002447656	-0.01959383	
749.819	255.0546	744.1768	0	3						0.003993332	0.002470598	-0.01960919	
749.830	255.0651	744.1873	0	3						0.003928654	0.002484349	-0.01963272	
749.841	255.0764	744.1986	0	3						0.003863957	0.002503792	-0.0196654	
749.855	255.0907	744.2128	0	3						0.003832047	0.002513418	-0.01968033	
749.865	255.1005	744.2227	0	3						0.00374708	0.002517943	-0.01972695	
749.874	255.1097	744.2319	0	3						0.003654283	0.002517368	-0.01976696	
749.886	255.1212	744.2433	0	3						0.003677674	0.002514864	-0.01977211	
749.896	255.1313	744.2535	0	3						0.003597192	0.002512375	-0.01982728	
749.906	255.1421	744.2643	0	3						0.003544375	0.002520855	-0.01986795	
749.920	255.1544	744.2766	0	3						0.003516448	0.002515831	-0.01988909	
749.930	255.1654	744.2875	0	3						0.003438611	0.002525671	-0.01994665	
749.940	255.1757	744.2979	0	3						0.003428571	0.002521346	-0.01996997	
749.954	255.189	744.3112	0	3						0.003383551	0.002525433	-0.0200084	
749.964	255.1995	744.3217	0	3						0.003333703	0.002544086	-0.02007513	
749.974	255.2091	744.3312	0	3						0.003301685	0.002542661	-0.02011183	
749.987	255.2227	744.3448	0	3						0.003302954	0.002551738	-0.02013496	
749.998	255.2334	744.3555	0	3						0.00326527	0.00256577	-0.02018976	
750.009	255.2439	744.366	0	3						0.003207975	0.002590191	-0.02026626	
750.021	255.2563	744.3785	0	3						0.003194038	0.002590651	-0.02028855	
750.030	255.2655	744.3877	0	3						0.003142413	0.002613659	-0.02035228	
750.041	255.276	744.3981	0	3						0.003126658	0.002629511	-0.02037626	
750.053	255.2885	744.4106	0	3						0.003119882	0.002647053	-0.02041228	
750.064	255.2993	744.4214	0	3						0.003134754	0.002674397	-0.02043229	
750.074	255.31	744.4321	0	3						0.003147983	0.002692103	-0.02045934	
750.087	255.3223	744.4445	0	3						0.003121063	0.002705874	-0.02049062	
750.114	255.349	744.4711	0	3						0.003149092	0.002727679	-0.0205165	
750.122	255.3578	744.4799	0	3						0.003123246	0.002772285	-0.0206196	
750.132	255.3678	744.4899	0	3						0.003163915	0.002786276	-0.02063248	
750.140	255.3752	744.4974	0	3						0.003162071	0.002796312	-0.0206595	
750.151	255.3868	744.509	0	3						0.003168818	0.002800409	-0.02067238	
750.164	255.3994	744.5215	0	3						0.003143082	0.002805169	-0.02069465	
750.175	255.4108	744.5329	0	3						0.003190357	0.00282172	-0.02070758	
750.185	255.4205	744.5425	0	3						0.003170282	0.002824389	-0.02072366	
750.197	255.4324	744.5545	0	3						0.003200401	0.002835258	-0.0207286	
750.207	255.4428	744.5649	0	3						0.003223768	0.002836664	-0.02073334	
750.220	255.4556	744.5777	0	3						0.003235611	0.00284204	-0.02073566	
750.230	255.4657	744.5878	0	3						0.003248342	0.002843521	-0.02073698	
750.239	255.4751	744.5972	0	3						0.003258134	0.002839656	-0.02073294	
750.252	255.4872	744.6093	0	3						0.003253885	0.002827124	-0.02072694	
750.262	255.4977	744.6198	0	3						0.003267236	0.002822066	-0.02071519	
750.275	255.5105	744.6326	0	3						0.003276601	0.002810425	-0.02070087	
750.287	255.5215	744.6436	0	3						0.00326762	0.002790808	-0.02068422	
750.297	255.5323	744.6545	0	3						0.003283049	0.002756014	-0.02067168	
750.308	255.543	744.6651	0	3						0.003303546	0.002738173	-0.02065038	
750.326	255.561	744.6831	0	3						0.003313811	0.002723786	-0.02062581	
750.335	255.5702	744.6923	0	3						0.003314674	0.002690473	-0.02059462	
750.341	255.5757	744.6978	0	3						0.003341604	0.002671896	-0.02057604	
750.351	255.5868	744.7089	0	3						0.003331221	0.002644041	-0.02056045	
750.363	255.5984	744.7205	0	3						0.00334572	0.002624251	-0.02054107	
750.375	255.611	744.7332	0	3						0.003357758	0.002598951	-0.02051479	
750.385	255.6204	744.7425	0	3						0.00336533	0.002580005	-0.02048668	
750.396	255.6309	744.753	0	3						0.00337578	0.002572887	-0.02046135	
750.408	255.643	744.7651	0	3						0.003383522	0.002556001	-0.02043555	
750.418	255.6532	744.7754	0	3						0.003399535	0.002531247	-0.02039971	
750.429	255.6643	744.7864	0	3						0.003421073	0.00251801	-0.02036987	
750.441	255.6764	744.7986	0	3						0.00343262	0.002506293	-0.02034185	
750.454	255.6893	744.8114	0	3						0.003411162	0.002479187	-0.02030967	
750.463	255.6989	744.821	0	3						0.00342796	0.002457892	-0.0202603	
750.475	255.7107	744.8328	0	3						0.003405712	0.002448082	-0.02023649	
750.488	255.7234	744.8455	0	3						0.003446282	0.002437572	-0.02019405	
750.497	255.7326	744.8548	0	3						0.003433156	0.002415377	-0.02013659	
750.508	255.7428	744.865	0	3						0.003447123	0.002405253	-0.02010846	
750.520	255.755	744.8771	0	3						0.003439009	0.00238237	-0.02006292	
750.530	255.7654	744.8876	0	3						0.003445055	0.00236942	-0.02001049	
750.540	255.7757	744.8979	0	3						0.003424086	0.002333343	-0.01994506	
750.553	255.7881	744.9102	0	3						0.003419243	0.002303834	-0.01989743	
750.565	255.8	744.9222	0	3						0.003396198	0.002282963	-0.01984339	
750.574	255.8092	744.9313	0	3						0.003393919	0.002282107	-0.01979502	
750.586	255.8216	744.9438	0	3						0.003380504	0.002280518	-0.01974976	
750.598	255.8336	744.9558	0	3						0.003393562	0.002267982	-0.01970328	
750.608	255.8435	744.9657	0	3						0.003363207	0.002242991	-0.01964458	
750.620	255.8553	744.9775	0	3						0.003345706	0.002236415	-0.01960707	
750.635	255.8707	744.9929	0	3						0.003340453	0.002223265	-0.01956148	
750.641	255.8767	744.9989	0	3						0.003298598	0.002205954	-0.01951908	
750.653	255.8882	745.0104	0	3						0.003288876	0.002171697	-0.01949466	
750.664	255.899	745.0212	0	3						0.003265857	0.002155621	-0.01946989	
750.674	255.9093	745.0315	0	3						0.003246062	0.002143868	-0.01944691	
750.685	255.9209	745.043	0	3						0.003232706	0.002123411	-0.019426	
750.698	255.9335	745.0557	0	3						0.003191563	0.002114895	-0.01941711	
750.708	255.9433	745.0655	0	3						0.003177304	0.002066751	-0.01940059	
750.720	255.9551	745.0773	0	3						0.003151149	0.002050545	-0.01939252	
750.730	255.9657	745.0879	0	3						0.003119762	0.002020935	-0.01938186	
750.741	255.9765	745.0987	0	3						0.003072526	0.001989842	-0.01939343	
750.754	255.9889	745.1111	0	3						0.003059535	0.001980555	-0.01938952	
750.765	256.0009	745.123	0	3						0.003042631	0.001964316	-0.01938782	
750.777	256.0117	745.1339	0	3						0.002997577	0.001953212	-0.0194059	
750.789	256.0243	745.1464	0	3						0.002954624	0.001949243	-0.01942675	
750.798	256.0338	745.156	0	3						0.002943481	0.001929901	-0.01943181	
750.810	256.0452	745.1674	0	3						0.002944239	0.001923372	-0.01941954	
750.820	256.0554	745.1776	0	3						0.002905756	0.001921906	-0.0194436	
750.832	256.0671	745.1893	0	3						0.002892382	0.001907877	-0.01945185	
750.842	256.0775	745.1997	0	3						0.002862316	0.001908885	-0.01947059	
750.869	256.1042	745.2264	0	3						0.002850663	0.001911094	-0.01947908	
750.879	256.1148	745.2369	0	3						0.002812278	0.001926381	-0.01951041	
750.886	256.121	745.2432	0	3						0.00279431	0.001931748	-0.01952256	
750.896	256.1317	745.2539	0	3						0.002782162	0.001937512	-0.01953533	
750.907	256.1428	745.2649	0	3						0.002762277	0.001936751	-0.0195422	
750.921	256.1561	745.2783	0	3						0.002748351	0.001944293	-0.01954857	
750.931	256.1665	745.2887	0	3						0.002683441	0.00193524	-0.01956603	
750.943	256.1784	745.3005	0	3						0.002669397	0.001951482	-0.01957536	
750.955	256.19	745.3122	0	3						0.002651948	0.00195474	-0.01958323	
750.965	256.1999	745.3221	0	3						0.002621227	0.001964117	-0.01958022	
750.974	256.2095	745.3317	0	3						0.002598447	0.001977083	-0.01957758	
750.987	256.2222	745.3443	0	3						0.002579622	0.001992063	-0.01957698	
750.997	256.2323	745.3544	0	3						0.002546641	0.002005992	-0.01957612	
751.008	256.2433	745.3654	0	3						0.002522756	0.002013996	-0.01957137	
751.019	256.2545	745.3766	0	3						0.002490159	0.002014183	-0.01955747	
751.032	256.2665	745.3887	0	3						0.002460825	0.00201717	-0.01955376	
751.042	256.2771	745.3993	0	3						0.002413708	0.002011416	-0.01954519	
751.053	256.2889	745.4111	0	3						0.002364755	0.00199274	-0.01953456	
751.065	256.3006	745.4228	0	3						0.002331678	0.001986614	-0.01952895	
751.075	256.3102	745.4324	0	3						0.002305634	0.001978768	-0.01951342	
751.087	256.3222	745.4444	0	3						0.002261676	0.001966594	-0.01950563	
751.102	256.337	745.4592	0	3						0.002201346	0.001946691	-0.01948824	
751.114	256.3487	745.4709	0	3						0.00213425	0.001928059	-0.01945675	
751.119	256.3543	745.4765	0	3						0.002028085	0.001903019	-0.01944936	
751.131	256.3667	745.489	0	3						0.002027515	0.00189854	-0.01942758	
751.140	256.3759	745.4981	0	3						0.001896761	0.001868921	-0.01941252	
751.152	256.3869	745.5092	0	3						0.001808438	0.00184639	-0.01939202	
751.164	256.3994	745.5217	0	3						0.00169878	0.001824337	-0.01936988	
751.174	256.4095	745.5317	0	3						0.001517045	0.001781612	-0.01934304	
751.186	256.4216	745.5438	0	3						0.001316793	0.00175128	-0.01932163	
751.197	256.4326	745.5547	0	3						0.001066606	0.001695537	-0.01929836	
751.209	256.4446	745.5668	0	3						0.0007187016	0.001709581	-0.01930422	
751.220	256.4549	745.5771	0	3						0.0002095178	0.001717003	-0.01930178	
751.230	256.466	745.5882	0	3						-0.0003024675	0.001697505	-0.01930552	
751.243	256.4785	745.6007	0	3						-0.0008781627	0.001703012	-0.01935136	
751.259	256.4949	745.6171	0	3						-0.001587391	0.001698502	-0.0194018	
751.269	256.5039	745.6261	0	3						-0.002340667	0.001637953	-0.01945206	
751.282	256.5167	745.6389	0	3						-0.003139816	0.001593074	-0.01950142	
751.289	256.5235	745.6457	0	3						-0.0039379	0.001548948	-0.01958236	
751.297	256.5326	745.6548	0	3						-0.004712217	0.001508953	-0.01965911	
751.307	256.5419	745.6641	0	3						-0.005554871	0.001477098	-0.01973598	
751.319	256.5539	745.676	0	3						-0.00639744	0.001454356	-0.01981246	
751.329	256.5644	745.6865	0	3						-0.007208404	0.001469088	-0.01991125	
751.341	256.5764	745.6986	0	3						-0.007982925	0.001452482	-0.01999424	
751.351	256.5865	745.7087	0	3						-0.008794177	0.00141251	-0.02009058	
751.362	256.5976	745.7198	0	3						-0.009602435	0.001372217	-0.02022204	
751.375	256.6102	745.7324	0	3						-0.01036311	0.001336348	-0.02038004	
751.385	256.6199	745.7421	0	3						-0.01115841	0.001243554	-0.02052364	
751.397	256.6325	745.7546	0	3						-0.01194848	0.00118429	-0.02067657	
751.414	256.6494	745.7715	0	3						-0.01274422	0.00111982	-0.02081627	
751.425	256.6608	745.783	0	3						-0.01359845	0.001039815	-0.02101558	
751.437	256.6722	745.7944	0	3						-0.01442381	0.0009371702	-0.021192	
751.446	256.6817	745.804	0	3						-0.01533401	0.000848786	-0.02139197	
751.451	256.6865	745.8087	0	3						-0.01623545	0.0007414456	-0.02160085	
751.461	256.696	745.8182	0	3						-0.01711287	0.0006737865	-0.02182935	
751.472	256.7077	745.8299	0	3						-0.01809957	0.0005531091	-0.02203332	
751.486	256.721	745.8431	0	3						-0.01905099	0.000409867	-0.02224831	
751.495	256.7305	745.8526	0	3						-0.0200482	0.0003085163	-0.0224876	
751.506	256.7414	745.8635	0	3						-0.02098639	0.0001464273	-0.0227076	
751.518	256.7538	745.876	0	3						-0.02194573	1.913437E-05	-0.02294235	
751.529	256.7642	745.8864	0	3						-0.02291552	-0.0001029687	-0.02320384	
751.540	256.7754	745.8975	0	3						-0.02381815	-0.0002409795	-0.02344792	
751.552	256.788	745.9101	0	3						-0.02473733	-0.0004040519	-0.0237045	
751.567	256.8018	745.9239	0	3						-0.02562024	-0.0005683117	-0.02400143	
751.573	256.8087	745.9308	0	3						-0.02654339	-0.0007383368	-0.02430415	
751.585	256.8204	745.9425	0	3						-0.02735642	-0.0009496796	-0.02462022	
751.613	256.8481	745.9703	0	3						-0.02824306	-0.001096548	-0.02497199	
751.622	256.8577	745.9799	0	3						-0.02923885	-0.001311546	-0.02525025	
751.632	256.8671	745.9892	0	3						-0.03089915	-0.001741582	-0.02606614	
751.639	256.8745	745.9966	0	3						-0.03177975	-0.001956502	-0.02648954	
751.651	256.8866	746.0087	0	3						-0.03273796	-0.002176497	-0.02692032	
751.662	256.8978	746.0199	0	3						-0.03377857	-0.002433395	-0.0273079	
751.673	256.9087	746.0308	0	3						-0.03488217	-0.002661185	-0.0277197	
751.685	256.9201	746.0422	0	3						-0.03597935	-0.002917051	-0.02812192	
751.695	256.9312	746.0533	0	3						-0.03716105	-0.003162414	-0.02851016	
751.709	256.9445	746.0667	0	3						-0.03836844	-0.003451303	-0.02893481	
751.722	256.9573	746.0794	0	3						-0.03959213	-0.003761138	-0.02941433	
751.734	256.9692	746.0914	0	3						-0.04093287	-0.003979015	-0.02988845	
751.740	256.9747	746.0969	0	3						-0.0422528	-0.004276338	-0.03037353	
751.752	256.9869	746.109	0	3						-0.04346369	-0.004548007	-0.03096773	
751.762	256.997	746.1191	0	3						-0.04482022	-0.004840921	-0.03137748	
751.774	257.0098	746.132	0	3						-0.04620726	-0.005129088	-0.03190564	
751.786	257.0215	746.1436	0	3						-0.04755614	-0.005473002	-0.03245983	
751.797	257.0322	746.1544	0	3						-0.04898643	-0.005784039	-0.03313205	
751.807	257.0421	746.1642	0	3						-0.05050857	-0.006115559	-0.03384015	
751.818	257.0537	746.1759	0	3						-0.05196703	-0.006430295	-0.03457546	
751.829	257.0648	746.187	0	3						-0.05345998	-0.006759852	-0.03534171	
751.840	257.0759	746.198	0	3						-0.0548628	-0.007099433	-0.03618608	
751.852	257.0875	746.2096	0	3						-0.05636572	-0.007459828	-0.03697815	
751.863	257.0986	746.2208	0	3						-0.05786404	-0.00784071	-0.03778227	
751.874	257.1101	746.2322	0	3						-0.05935112	-0.008231466	-0.03858982	
751.887	257.1227	746.2448	0	3						-0.06083893	-0.008670192	-0.03940653	
751.898	257.134	746.2562	0	3						-0.06212363	-0.009074129	-0.04034133	
751.907	257.1423	746.2645	0	3						-0.06343522	-0.009494147	-0.04126436	
751.918	257.1534	746.2755	0	3						-0.06462225	-0.009905884	-0.04207925	
751.929	257.1643	746.2864	0	3						-0.06576026	-0.01031971	-0.04292086	
751.941	257.1757	746.2979	0	3						-0.06685708	-0.01075323	-0.04373748	
751.953	257.1879	746.3101	0	3						-0.06801996	-0.01122419	-0.04461209	
751.963	257.1979	746.3201	0	3						-0.06915238	-0.01173132	-0.04541957	
751.974	257.2091	746.3313	0	3						-0.07013098	-0.01218881	-0.04619171	
751.985	257.2208	746.343	0	3						-0.07110918	-0.0126731	-0.04689775	
751.996	257.2314	746.3535	0	3						-0.0720746	-0.01313702	-0.04769846	
752.008	257.2428	746.3651	0	3						-0.07292245	-0.01363823	-0.04845495	
752.019	257.254	746.3762	0	3						-0.07376919	-0.01418008	-0.04914827	
