Time	keytime	time-time	keypress	target id	target_lon	target_lat	target_x	target_y	target_z	hmd_rx	hmd_ry	hmd_rz	
216.480	0.02719802	212.4564	0	18						-0.006994992	-0.003660629	-0.006206824	
216.496	0.04547476	212.4747	0	18						-0.006912813	-0.003701648	-0.005988681	
216.520	0.06847961	212.4977	0	18						-0.006900877	-0.003718771	-0.005789478	
216.541	0.09037945	212.5196	0	18						-0.006871536	-0.003737689	-0.005628503	
216.565	0.1130876	212.5423	0	18						-0.006860065	-0.003746162	-0.005480504	
216.604	0.1528446	212.5821	0	18						-0.006876424	-0.003753137	-0.005327004	
216.620	0.1690671	212.5983	0	18						-0.006884623	-0.003797565	-0.005165087	
216.637	0.1855368	212.6147	0	18						-0.006910693	-0.003812092	-0.005068901	
216.652	0.2014609	212.6307	0	18						-0.006924167	-0.003822166	-0.004992237	
216.675	0.2235591	212.6528	0	18						-0.006927695	-0.003838017	-0.004925574	
216.697	0.2459824	212.6752	0	18						-0.006956425	-0.003833392	-0.004834844	
216.717	0.2664253	212.6956	0	18						-0.006999849	-0.003827024	-0.004755806	
216.739	0.2878866	212.7171	0	18						-0.007040977	-0.003827933	-0.004687232	
216.755	0.3045677	212.7338	0	18						-0.007087484	-0.003805861	-0.004629347	
216.771	0.3203927	212.7496	0	18						-0.007146024	-0.003800672	-0.00457567	
216.786	0.3348729	212.7641	0	18						-0.007162343	-0.003796228	-0.004564571	
216.804	0.352721	212.7819	0	18						-0.007204171	-0.003785177	-0.004549079	
216.819	0.3684223	212.7976	0	18						-0.007249631	-0.003793649	-0.004527778	
216.836	0.3851109	212.8143	0	18						-0.007273107	-0.003796729	-0.004530546	
216.851	0.4001442	212.8294	0	18						-0.007319201	-0.003788965	-0.004535391	
216.869	0.4173329	212.8465	0	18						-0.007379144	-0.003785582	-0.004535918	
216.891	0.4398107	212.869	0	18						-0.007408857	-0.003778524	-0.004546629	
216.907	0.4564547	212.8857	0	18						-0.007472117	-0.003767429	-0.004565091	
216.926	0.4747761	212.904	0	18						-0.007532168	-0.003760599	-0.004585921	
216.942	0.4907109	212.9199	0	18						-0.007579803	-0.00377105	-0.004615303	
216.959	0.5083231	212.9375	0	18						-0.007648754	-0.003779768	-0.004645783	
216.985	0.5320071	212.9612	0	18						-0.007694732	-0.003787662	-0.004681543	
217.007	0.5552912	212.9845	0	18						-0.007790063	-0.003794956	-0.004736837	
217.028	0.5768355	213.0061	0	18						-0.007898037	-0.00379222	-0.004795056	
217.051	0.6003717	213.0296	0	18						-0.008002989	-0.003785028	-0.004845315	
217.072	0.6208446	213.0501	0	18						-0.008118596	-0.003753319	-0.004908647	
217.095	0.6436346	213.0728	0	18						-0.008212171	-0.003731276	-0.004973508	
217.116	0.6652654	213.0945	0	18						-0.008361652	-0.003709247	-0.005076461	
217.139	0.6878451	213.1171	0	18						-0.008503113	-0.003696699	-0.005189736	
217.161	0.7096537	213.1389	0	18						-0.008658316	-0.003668388	-0.005326757	
217.186	0.7334889	213.1627	0	18						-0.008855022	-0.003656313	-0.005465434	
217.207	0.7555729	213.1848	0	18						-0.009060697	-0.003610815	-0.005630551	
217.241	0.7765791	213.2058	0	18						-0.009248137	-0.003571226	-0.005786704	
217.258	0.8061684	213.2354	0	18						-0.009421311	-0.003534371	-0.005948079	
217.276	0.8237862	213.253	0	18						-0.009646535	-0.003489352	-0.006220608	
217.294	0.8432825	213.2725	0	18						-0.009791873	-0.003478092	-0.006376012	
217.317	0.8656201	213.2948	0	18						-0.009896751	-0.003448964	-0.006527228	
217.340	0.8881742	213.3174	0	18						-0.01000901	-0.003422823	-0.006721843	
217.361	0.9097402	213.339	0	18						-0.01012393	-0.003403656	-0.006929229	
217.383	0.9316776	213.3609	0	18						-0.0102243	-0.00340051	-0.007134192	
217.405	0.9539235	213.3831	0	18						-0.01031319	-0.003387682	-0.007338548	
217.426	0.9750953	213.4043	0	18						-0.01039904	-0.003364644	-0.007547108	
217.449	0.9981965	213.4274	0	18						-0.01044654	-0.003341451	-0.007738017	
217.474	1.022782	213.452	0	18						-0.01051126	-0.00332005	-0.007949978	
217.495	1.043804	213.473	0	18						-0.0105658	-0.00331709	-0.008148784	
217.518	1.066968	213.4962	0	18						-0.01059792	-0.003324815	-0.008329327	
217.540	1.088714	213.5179	0	18						-0.01062064	-0.003330514	-0.008506669	
217.562	1.110861	213.5401	0	18						-0.01063557	-0.003328338	-0.008650856	
217.584	1.133347	213.5626	0	18						-0.01067336	-0.003321666	-0.008827704	
217.607	1.155867	213.5851	0	18						-0.01070143	-0.003304834	-0.008947266	
217.629	1.177521	213.6067	0	18						-0.01072401	-0.003318096	-0.00911252	
217.651	1.200162	213.6294	0	18						-0.0107768	-0.003310852	-0.009227611	
217.674	1.222816	213.652	0	18						-0.01083633	-0.00328042	-0.009323183	
217.697	1.245853	213.6751	0	18						-0.01088312	-0.003282349	-0.009441124	
217.719	1.267428	213.6966	0	18						-0.01093673	-0.003270799	-0.009541566	
217.741	1.289354	213.7186	0	18						-0.01098261	-0.003264121	-0.009620397	
217.763	1.311171	213.7404	0	18						-0.011023	-0.003248818	-0.009690179	
217.785	1.334514	213.7637	0	18						-0.01107063	-0.003229428	-0.009718406	
217.808	1.357205	213.7864	0	18						-0.01109705	-0.003208772	-0.009730822	
217.830	1.37877	213.808	0	18						-0.01114499	-0.003176025	-0.009740153	
217.853	1.401774	213.831	0	18						-0.01120991	-0.003153487	-0.009757168	
217.869	1.41829	213.8475	0	18						-0.01127482	-0.003155066	-0.009761112	
217.886	1.434807	213.864	0	18						-0.01134779	-0.003138839	-0.009753264	
217.902	1.45042	213.8796	0	18						-0.01139398	-0.003140741	-0.009747709	
217.931	1.479485	213.9087	0	18						-0.01144748	-0.003141713	-0.00974858	
217.947	1.495748	213.925	0	18						-0.01155716	-0.003139992	-0.009763706	
217.964	1.512775	213.942	0	18						-0.01160213	-0.003157825	-0.009779591	
217.987	1.536214	213.9654	0	18						-0.01165509	-0.003147265	-0.009816655	
218.004	1.552765	213.982	0	18						-0.01172765	-0.00317775	-0.009814937	
218.020	1.569331	213.9986	0	18						-0.0117665	-0.003191884	-0.009818437	
218.039	1.587993	214.0172	0	18						-0.01180594	-0.003206922	-0.009817592	
218.056	1.605344	214.0346	0	18						-0.01184385	-0.003218565	-0.009810993	
218.073	1.621661	214.0509	0	18						-0.01187828	-0.003235522	-0.009798785	
218.093	1.641825	214.071	0	18						-0.01189994	-0.003239083	-0.009795487	
218.117	1.665542	214.0948	0	18						-0.01193367	-0.003261253	-0.009784506	
218.140	1.688774	214.118	0	18						-0.01198578	-0.003274739	-0.009767108	
218.160	1.708975	214.1382	0	18						-0.0120332	-0.003285644	-0.009746783	
218.187	1.708975	214.162	1	11	150	-30	0.2165064	-0.25	-0.375	-0.01205922	-0.003290332	-0.009740519	
218.187	1.732838	214.162	0	11						-0.01205922	-0.003290332	-0.009740519	
218.205	1.753683	214.1829	0	11						-0.01212177	-0.003292109	-0.009726125	
218.232	1.779899	214.2091	0	11						-0.01217457	-0.003288784	-0.009713585	
218.249	1.798507	214.2277	0	11						-0.01222932	-0.003279379	-0.009686771	
218.275	1.822827	214.252	0	11						-0.01226211	-0.003270301	-0.009669063	
218.298	1.847266	214.2765	0	11						-0.01230272	-0.003267365	-0.009648423	
218.317	1.866412	214.2956	0	11						-0.01236216	-0.003264727	-0.009622648	
218.340	1.888666	214.3179	0	11						-0.01239108	-0.00325757	-0.009615695	
218.361	1.909823	214.339	0	11						-0.01244044	-0.003244064	-0.009603508	
218.384	1.932209	214.3614	0	11						-0.01248114	-0.003259698	-0.009593197	
218.407	1.955776	214.385	0	11						-0.01252262	-0.003265256	-0.009584203	
218.430	1.979282	214.4085	0	11						-0.01256344	-0.003264543	-0.009575754	
218.451	2.000185	214.4294	0	11						-0.0125788	-0.003272814	-0.009564831	
218.473	2.022246	214.4515	0	11						-0.01259689	-0.003284544	-0.009545439	
218.494	2.043053	214.4723	0	11						-0.01261088	-0.003268468	-0.009521894	
218.517	2.065395	214.4946	0	11						-0.01261858	-0.00326944	-0.009489926	
218.539	2.08699	214.5162	0	11						-0.01261323	-0.003288914	-0.009460053	
218.576	2.111224	214.5404	0	11						-0.01256849	-0.003316942	-0.009425984	
218.593	2.141886	214.5711	0	11						-0.0123961	-0.003317145	-0.009381264	
218.614	2.161289	214.5905	0	11						-0.01200124	-0.003317622	-0.009307699	
218.632	2.180998	214.6102	0	11						-0.01147052	-0.003343558	-0.009262225	
218.649	2.198491	214.6277	0	11						-0.01076737	-0.003314751	-0.009277284	
218.670	2.218871	214.6481	0	11						-0.009804171	-0.003312081	-0.009358024	
218.694	2.243035	214.6723	0	11						-0.008509048	-0.003341508	-0.009524208	
218.718	2.266608	214.6958	0	11						-0.006821644	-0.00332567	-0.009802383	
218.743	2.291444	214.7207	0	11						-0.004853644	-0.003297391	-0.01014088	
218.762	2.311336	214.7406	0	11						-0.002556683	-0.003167125	-0.01063977	
218.786	2.334726	214.7639	0	11						-0.0001580864	-0.003204065	-0.01117701	
218.807	2.355696	214.7849	0	11						0.002494018	-0.003170427	-0.01199775	
218.828	2.376951	214.8062	0	11						0.005186894	-0.003121385	-0.01298488	
218.850	2.39913	214.8283	0	11						0.007956401	-0.003047331	-0.01409115	
218.874	2.422701	214.8519	0	11						0.01086931	-0.003001737	-0.01543666	
218.894	2.443031	214.8723	0	11						0.013988	-0.002881304	-0.01701691	
218.919	2.468136	214.8974	0	11						0.01703142	-0.00263558	-0.01877043	
218.941	2.489865	214.9191	0	11						0.01986029	-0.0025842	-0.02085037	
218.964	2.511871	214.9411	0	11						0.02254231	-0.002632279	-0.02309627	
218.986	2.535053	214.9643	0	11						0.0249892	-0.002746695	-0.02553159	
219.007	2.555753	214.985	0	11						0.02711722	-0.002883625	-0.0280617	
219.029	2.577415	215.0066	0	11						0.02909092	-0.003086056	-0.0307199	
219.052	2.600723	215.0299	0	11						0.03093533	-0.003328744	-0.03352692	
219.075	2.624294	215.0535	0	11						0.03266072	-0.003589917	-0.03634249	
219.096	2.645318	215.0745	0	11						0.03423132	-0.003788281	-0.03919137	
219.118	2.666988	215.0962	0	11						0.03560369	-0.004089412	-0.04186945	
219.141	2.689793	215.119	0	11						0.03677657	-0.004430394	-0.04466591	
219.163	2.711745	215.141	0	11						0.03778452	-0.004868341	-0.04757798	
219.184	2.732629	215.1618	0	11						0.03861943	-0.005350356	-0.05026035	
219.208	2.755901	215.1851	0	11						0.03936614	-0.005893867	-0.05317607	
219.231	2.779868	215.2091	0	11						0.03986469	-0.006428124	-0.05609186	
219.252	2.800862	215.2301	0	11						0.04020859	-0.007119293	-0.05911214	
219.290	2.838116	215.2673	0	11						0.04038553	-0.007764575	-0.06190656	
219.308	2.856404	215.2856	0	11						0.04041706	-0.008368665	-0.0653708	
219.325	2.874133	215.3033	0	11						0.0402528	-0.009069601	-0.06792062	
219.343	2.891996	215.3212	0	11						0.04000032	-0.009826696	-0.07030828	
219.365	2.913646	215.3429	0	11						0.0396849	-0.01054817	-0.07262527	
219.388	2.936641	215.3659	0	11						0.03938467	-0.01124537	-0.07508426	
219.408	2.957317	215.3865	0	11						0.03905677	-0.01209375	-0.07739237	
219.430	2.979068	215.4083	0	11						0.03857994	-0.01300523	-0.07963192	
219.452	3.00123	215.4305	0	11						0.03806262	-0.01392034	-0.08174991	
219.474	3.022619	215.4518	0	11						0.03751123	-0.01480564	-0.0841857	
219.496	3.044098	215.4733	0	11						0.03684276	-0.01587647	-0.08655468	
219.517	3.066317	215.4955	0	11						0.03595031	-0.01679633	-0.08899762	
219.540	3.089359	215.5186	0	11						0.03483281	-0.01766389	-0.09129224	
219.564	3.11282	215.542	0	11						0.03352109	-0.01840049	-0.09372284	
219.586	3.135263	215.5645	0	11						0.03216863	-0.0191955	-0.09580392	
219.608	3.156677	215.5859	0	11						0.03074834	-0.01999266	-0.09778541	
219.629	3.178565	215.6078	0	11						0.02933341	-0.02085442	-0.09941803	
219.653	3.201116	215.6303	0	11						0.02787039	-0.02174908	-0.1009857	
219.677	3.225469	215.6547	0	11						0.02649664	-0.02284282	-0.1025042	
219.698	3.246315	215.6755	0	11						0.02521369	-0.02410381	-0.1038532	
219.719	3.268332	215.6975	0	11						0.02388203	-0.02541087	-0.1049523	
219.744	3.29227	215.7215	0	11						0.02262792	-0.02691631	-0.1058652	
219.763	3.312333	215.7415	0	11						0.0211507	-0.02867015	-0.1073671	
219.785	3.334033	215.7632	0	11						0.01990084	-0.0301377	-0.1085223	
219.809	3.357309	215.7865	0	11						0.01865924	-0.03166881	-0.1101149	
219.829	3.377907	215.8071	0	11						0.01733805	-0.03308867	-0.1122367	
219.854	3.402455	215.8317	0	11						0.01614227	-0.03441294	-0.1138697	
219.876	3.424688	215.8539	0	11						0.01472571	-0.0356053	-0.1160306	
219.898	3.446577	215.8758	0	11						0.01344557	-0.03637852	-0.1179536	
219.919	3.468321	215.8975	0	11						0.01215027	-0.03699366	-0.1200529	
219.941	3.489592	215.9188	0	11						0.01091556	-0.03752789	-0.1224874	
219.962	3.511128	215.9403	0	11						0.009543031	-0.03787286	-0.1249929	
219.997	3.545997	215.9752	0	11						0.008296413	-0.03822621	-0.1273698	
220.014	3.561765	215.991	0	11						0.006971572	-0.03862205	-0.1312277	
220.037	3.585881	216.0151	0	11						0.005904347	-0.0390517	-0.1333984	
220.055	3.603796	216.033	0	11						0.00493197	-0.03954126	-0.1362295	
220.072	3.621135	216.0504	0	11						0.004007457	-0.04003835	-0.1381639	
220.096	3.644668	216.0739	0	11						0.002960294	-0.04072892	-0.1404805	
220.118	3.666855	216.0961	0	11						0.001844198	-0.04145243	-0.1432609	
220.139	3.6874	216.1166	0	11						0.0008231122	-0.04229956	-0.1458005	
220.163	3.711818	216.141	0	11						-0.0002987087	-0.04327596	-0.1479997	
220.185	3.734031	216.1633	0	11						-0.002041416	-0.04445278	-0.1503296	
220.209	3.757327	216.1865	0	11						-0.003729489	-0.04564481	-0.1523758	
220.230	3.77854	216.2077	0	11						-0.005719749	-0.04721495	-0.1546261	
220.254	3.801395	216.2306	0	11						-0.008037113	-0.04866932	-0.1566623	
220.275	3.823498	216.2527	0	11						-0.01089867	-0.04991426	-0.1584733	
220.297	3.846219	216.2754	0	11						-0.01414699	-0.05106304	-0.1601896	
220.323	3.872382	216.3016	0	11						-0.01787449	-0.05147384	-0.162082	
220.344	3.892815	216.322	0	11						-0.02167294	-0.05163483	-0.1641012	
220.365	3.914516	216.3437	0	11						-0.02520792	-0.05166748	-0.1660132	
220.386	3.934612	216.3638	0	11						-0.02834344	-0.05137769	-0.1677666	
220.408	3.956727	216.3859	0	11						-0.03151511	-0.0507753	-0.1694485	
220.432	3.980503	216.4097	0	11						-0.03495876	-0.05013078	-0.1714433	
220.453	4.001702	216.4309	0	11						-0.03838217	-0.04936282	-0.173557	
220.476	4.024573	216.4538	0	11						-0.04159579	-0.04882509	-0.1757799	
220.500	4.04819	216.4774	0	11						-0.04500454	-0.0483634	-0.1781017	
220.519	4.068292	216.4975	0	11						-0.04851072	-0.04801006	-0.1803643	
220.541	4.090134	216.5193	0	11						-0.05221366	-0.04792151	-0.1826807	
220.563	4.111802	216.541	0	11						-0.0561254	-0.04788027	-0.1851101	
220.585	4.134513	216.5637	0	11						-0.05954622	-0.04777148	-0.1867945	
220.610	4.1591	216.5883	0	11						-0.06369898	-0.04795118	-0.1893504	
220.633	4.181434	216.6106	0	11						-0.06767841	-0.0480727	-0.1914825	
220.656	4.204422	216.6336	0	11						-0.07171191	-0.04834611	-0.1938446	
220.677	4.225957	216.6552	0	11						-0.07515274	-0.04857094	-0.1956822	
220.713	4.261405	216.6906	0	11						-0.07836816	-0.048865	-0.1972315	
220.729	4.27813	216.7074	0	11						-0.08185438	-0.04933732	-0.1996269	
220.746	4.294689	216.7239	0	11						-0.08468736	-0.04976127	-0.2011384	
220.767	4.315563	216.7448	0	11						-0.08735013	-0.05020308	-0.2025967	
220.789	4.338036	216.7673	0	11						-0.09037121	-0.05057461	-0.2044919	
220.810	4.359231	216.7885	0	11						-0.09308258	-0.05094531	-0.2058175	
220.834	4.382218	216.8114	0	11						-0.09523451	-0.05114162	-0.2067622	
220.854	4.402453	216.8317	0	11						-0.09712831	-0.05096702	-0.2078425	
220.875	4.423896	216.8531	0	11						-0.09835912	-0.0507574	-0.2083204	
220.898	4.446269	216.8755	0	11						-0.09941513	-0.05021681	-0.2087363	
220.920	4.468782	216.898	0	11						-0.1004172	-0.04995498	-0.2087859	
220.942	4.491159	216.9204	0	11						-0.1011962	-0.04931906	-0.208462	
220.966	4.51504	216.9443	0	11						-0.1017785	-0.04886007	-0.2082474	
220.986	4.535083	216.9643	0	11						-0.1018916	-0.04841642	-0.2077126	
221.009	4.557367	216.9866	0	11						-0.1021056	-0.04775462	-0.2075885	
221.033	4.581706	217.0109	0	11						-0.10168	-0.04706796	-0.2069121	
221.052	4.601089	217.0303	0	11						-0.1013169	-0.04669389	-0.2062882	
221.078	4.626956	217.0562	0	11						-0.1005995	-0.0463907	-0.2055448	
221.099	4.64785	217.0771	0	11						-0.09944157	-0.04613938	-0.2044092	
221.121	4.669805	217.099	0	11						-0.0977255	-0.04594761	-0.2027549	
221.143	4.691881	217.1211	0	11						-0.09609167	-0.04601202	-0.200992	
221.165	4.713673	217.1429	0	11						-0.09399553	-0.04568766	-0.1989389	
221.186	4.734956	217.1642	0	11						-0.09173404	-0.04534475	-0.196718	
221.210	4.758532	217.1877	0	11						-0.08930839	-0.04498952	-0.1940564	
221.233	4.780816	217.21	0	11						-0.08687326	-0.04454787	-0.1911008	
221.257	4.805912	217.2351	0	11						-0.08422717	-0.04410224	-0.1881727	
221.276	4.824666	217.2539	0	11						-0.08158434	-0.0437223	-0.1852405	
221.298	4.846983	217.2762	0	11						-0.07930502	-0.04346164	-0.1826405	
221.321	4.870275	217.2995	0	11						-0.07721686	-0.04341023	-0.1800639	
221.341	4.890346	217.3196	0	11						-0.07541378	-0.04360845	-0.177509	
221.367	4.914583	217.3438	0	11						-0.07376587	-0.04383985	-0.1750709	
221.386	4.935344	217.3646	0	11						-0.07270289	-0.04420834	-0.1730959	
221.423	4.971768	217.401	0	11						-0.07232632	-0.04459957	-0.1716662	
221.444	4.993124	217.4223	0	11						-0.07279977	-0.04501687	-0.1705674	
221.460	5.009629	217.4388	0	11						-0.07283493	-0.04548262	-0.1692569	
221.477	5.025893	217.4551	0	11						-0.07269786	-0.04585838	-0.1682362	
221.498	5.047124	217.4763	0	11						-0.0726928	-0.04624891	-0.1675449	
221.520	5.069387	217.4986	0	11						-0.07314415	-0.04671152	-0.1671078	
221.544	5.091124	217.5203	0	11						-0.07380621	-0.04724419	-0.166857	
221.563	5.112747	217.542	0	11						-0.07466869	-0.04766586	-0.1666315	
221.587	5.13539	217.5646	0	11						-0.07592716	-0.04820785	-0.166893	
221.610	5.159142	217.5883	0	11						-0.07759932	-0.04863284	-0.1675027	
221.630	5.179171	217.6084	0	11						-0.07927552	-0.04888023	-0.1678863	
221.652	5.201033	217.6302	0	11						-0.08055391	-0.04902448	-0.168384	
221.669	5.217952	217.6472	0	11						-0.08215342	-0.04917129	-0.1694602	
221.686	5.217952	217.6636	1	11	150	-30	0.2165064	-0.25	-0.375	-0.08324557	-0.04922359	-0.1700325	
221.686	5.234385	217.6636	0	11						-0.08324557	-0.04922359	-0.1700325	
221.705	5.25309	217.6823	0	11						-0.0843244	-0.04927413	-0.1705329	
221.719	5.267981	217.6972	0	11						-0.0859624	-0.04917061	-0.1712554	
221.735	5.283601	217.7128	0	11						-0.08671925	-0.04893632	-0.1714399	
221.751	5.299696	217.7289	0	11						-0.08827949	-0.04853695	-0.1722275	
221.773	5.321769	217.751	0	11						-0.08877052	-0.04823495	-0.1722864	
221.790	5.339293	217.7685	0	11						-0.08951049	-0.04797641	-0.1725137	
221.807	5.356174	217.7854	0	11						-0.09083065	-0.04704615	-0.1735033	
221.825	5.373408	217.8026	0	11						-0.09114139	-0.0468303	-0.1732983	
221.843	5.391814	217.821	0	11						-0.09110069	-0.04636125	-0.1725017	
221.858	5.407143	217.8363	0	11						-0.09057137	-0.04588997	-0.17142	
221.875	5.423947	217.8532	0	11						-0.08936623	-0.04485797	-0.1696167	
221.899	5.448266	217.8775	0	11						-0.08655066	-0.04319219	-0.1660764	
221.919	5.468225	217.8974	0	11						-0.08513439	-0.04247096	-0.1631321	
221.943	5.491454	217.9207	0	11						-0.08211263	-0.04036231	-0.1590105	
221.965	5.513189	217.9424	0	11						-0.0789848	-0.03779889	-0.154322	
221.987	5.535377	217.9646	0	11						-0.07584684	-0.03540558	-0.148962	
222.008	5.556639	217.9859	0	11						-0.07281633	-0.03284705	-0.1427749	
222.029	5.577628	218.0068	0	11						-0.06974329	-0.02979246	-0.1360236	
222.050	5.59939	218.0286	0	11						-0.06661799	-0.02659261	-0.1288494	
222.081	5.629656	218.0589	0	11						-0.06416321	-0.02345462	-0.1211849	
222.105	5.653886	218.0831	0	11						-0.06267025	-0.02050394	-0.1128273	
222.123	5.671656	218.1009	0	11						-0.0611863	-0.01792514	-0.1053773	
222.140	5.688607	218.1178	0	11						-0.05983614	-0.01571437	-0.09826319	
222.161	5.709618	218.1388	0	11						-0.0592638	-0.01400168	-0.09161168	
222.182	5.731197	218.1604	0	11						-0.05969756	-0.0126896	-0.08551213	
222.206	5.753663	218.1829	0	11						-0.06075951	-0.01140297	-0.0800682	
222.230	5.778538	218.2077	0	11						-0.06195505	-0.01040213	-0.07549184	
222.250	5.799007	218.2282	0	11						-0.06355198	-0.01003357	-0.07195618	
