Time	keytime	time-time	keypress	target id	target_lon	target_lat	target_x	target_y	target_z	hmd_rx	hmd_ry	hmd_rz	
98.691	0.02662756	94.69457	0	0						-0.004496463	0.003339672	-0.009580732	
98.727	0.06269195	94.73064	0	0						-0.004384457	0.003313721	-0.009595392	
98.744	0.08157432	94.74952	0	0						-0.004228394	0.003319551	-0.009622823	
98.765	0.1010232	94.76897	0	0						-0.004031446	0.003315209	-0.009628523	
98.785	0.1218078	94.78975	0	0						-0.00390089	0.003321165	-0.009648883	
98.808	0.1448103	94.81275	0	0						-0.003754776	0.003321107	-0.009681419	
98.835	0.1713221	94.83926	0	0						-0.003574733	0.003315825	-0.00970747	
98.854	0.1914489	94.85939	0	0						-0.003365642	0.003301794	-0.009721099	
98.876	0.2128913	94.88084	0	0						-0.003243667	0.00331688	-0.009743826	
98.893	0.229647	94.89759	0	0						-0.003105428	0.003309795	-0.009762601	
98.913	0.2498655	94.91781	0	0						-0.002995171	0.003310407	-0.009770324	
98.931	0.2680292	94.93597	0	0						-0.002855673	0.003320555	-0.009771104	
98.949	0.2864517	94.95439	0	0						-0.002727456	0.003333384	-0.009774149	
98.968	0.3052903	94.97324	0	0						-0.002613015	0.003306461	-0.009774899	
98.992	0.3290623	94.997	0	0						-0.002598104	0.003284717	-0.009798314	
99.013	0.3502451	95.01819	0	0						-0.002505545	0.00323943	-0.009815884	
99.032	0.3688312	95.03677	0	0						-0.002394877	0.003225081	-0.009837315	
99.051	0.3878119	95.05576	0	0						-0.002401679	0.003217146	-0.009850244	
99.072	0.408747	95.07669	0	0						-0.002364036	0.00323415	-0.009877212	
99.089	0.4258192	95.09377	0	0						-0.002350599	0.003253125	-0.009911046	
99.108	0.4453444	95.11329	0	0						-0.002364729	0.003267793	-0.009925324	
99.125	0.4623301	95.13027	0	0						-0.002320838	0.003292102	-0.009945058	
99.154	0.490449	95.15839	0	0						-0.002319993	0.003288577	-0.009951232	
99.177	0.5135309	95.18147	0	0						-0.002256662	0.003301085	-0.00994115	
99.194	0.5315192	95.19946	0	0						-0.002190423	0.003299523	-0.009918067	
99.213	0.5501096	95.21806	0	0						-0.002162301	0.003303127	-0.009905227	
99.239	0.5758791	95.24382	0	0						-0.00215565	0.003314818	-0.009899274	
99.257	0.5942771	95.26222	0	0						-0.002094127	0.003340882	-0.009854363	
99.276	0.6134925	95.28143	0	0						-0.002081275	0.003360863	-0.009816462	
99.303	0.6404559	95.3084	0	0						-0.00205747	0.003396782	-0.009768091	
99.321	0.6580982	95.32604	0	0						-0.002057428	0.003411212	-0.009729162	
99.341	0.6777829	95.34573	0	0						-0.002034307	0.003415229	-0.009694513	
99.359	0.695902	95.36385	0	0						-0.002027288	0.003419725	-0.009665863	
99.373	0.710861	95.37881	0	0						-0.002046944	0.003423367	-0.00963816	
99.388	0.7248036	95.39275	0	0						-0.00205576	0.003404862	-0.00961477	
99.409	0.7453732	95.41331	0	0						-0.00204544	0.003383214	-0.009591004	
99.429	0.7663171	95.43426	0	0						-0.002049949	0.003382352	-0.009560885	
99.450	0.7876543	95.4556	0	0						-0.002081278	0.003377433	-0.009540774	
99.468	0.8049711	95.47292	0	0						-0.002172355	0.003355158	-0.009516818	
99.487	0.8245444	95.49249	0	0						-0.002244607	0.003329849	-0.009500762	
99.504	0.8412287	95.50917	0	0						-0.002367917	0.00330413	-0.009496263	
99.525	0.8615834	95.52953	0	0						-0.002489292	0.003300147	-0.009499754	
99.545	0.8816885	95.54963	0	0						-0.002644223	0.00328218	-0.009489699	
99.563	0.9003797	95.56832	0	0						-0.00282602	0.003266198	-0.009487211	
99.581	0.9181594	95.58611	0	0						-0.002993652	0.003242706	-0.009488697	
99.607	0.9437069	95.61165	0	0						-0.00316921	0.003211975	-0.009479643	
99.629	0.9656478	95.63359	0	0						-0.003403589	0.003240382	-0.009517756	
99.660	0.9975202	95.66547	0	0						-0.003639955	0.003222575	-0.009520749	
99.679	1.015793	95.68374	0	0						-0.003982838	0.003193453	-0.009530657	
99.698	1.034421	95.70236	0	0						-0.004211287	0.003170052	-0.009519656	
99.719	1.055897	95.72384	0	0						-0.004448645	0.003145286	-0.009519034	
99.739	1.075623	95.74357	0	0						-0.004679245	0.003134814	-0.009531756	
99.765	1.100531	95.76847	0	0						-0.004894894	0.00313057	-0.009560996	
99.790	1.126458	95.7944	0	0						-0.005144819	0.003130783	-0.009596749	
99.812	1.126458	95.81339	1	5	180	0	2.622683E-08	0	-0.3	-0.005397927	0.003139508	-0.009649823	
99.812	1.145444	95.81339	0	5						-0.005397927	0.003139508	-0.009649823	
99.832	1.169305	95.83725	0	5						-0.005560178	0.003145902	-0.009693426	
99.857	1.193114	95.86105	0	5						-0.005763792	0.003168492	-0.009788686	
99.878	1.215269	95.88321	0	5						-0.005936101	0.003198244	-0.009895151	
99.897	1.2339	95.90184	0	5						-0.006081148	0.003228746	-0.01000752	
99.926	1.260903	95.92885	0	5						-0.006186593	0.003287262	-0.01013492	
99.948	1.284471	95.95242	0	5						-0.006178278	0.003326254	-0.01033222	
99.966	1.303064	95.97101	0	5						-0.006035309	0.003362185	-0.01052954	
99.985	1.32233	95.99027	0	5						-0.005741005	0.003427753	-0.01080171	
100.006	1.343286	96.01123	0	5						-0.005268023	0.003490304	-0.01111975	
100.024	1.361633	96.02958	0	5						-0.00465259	0.003577247	-0.01150832	
100.045	1.382395	96.05034	0	5						-0.003688152	0.003667654	-0.01199606	
100.064	1.40137	96.06931	0	5						-0.003043339	0.003718079	-0.01234141	
100.089	1.425948	96.09389	0	5						-0.002354845	0.003754801	-0.01269193	
100.110	1.447334	96.11528	0	5						-0.0009237006	0.003859144	-0.01346232	
100.129	1.465703	96.13364	0	5						0.001452446	0.003956091	-0.01483182	
100.148	1.485231	96.15318	0	5						0.00227337	0.003976862	-0.01542983	
100.164	1.501792	96.16974	0	5						0.003872403	0.004008211	-0.01662734	
100.184	1.520154	96.1881	0	5						0.005283061	0.004032149	-0.01784494	
100.205	1.541826	96.20977	0	5						0.006324415	0.004086602	-0.019041	
100.224	1.560809	96.22875	0	5						0.006546905	0.004140668	-0.01959204	
100.249	1.586326	96.25427	0	5						0.006883019	0.004301627	-0.02061466	
100.267	1.603771	96.27171	0	5						0.006526459	0.0044833	-0.02136857	
100.283	1.6206	96.28854	0	5						0.005659716	0.004699788	-0.02191129	
100.301	1.638517	96.30646	0	5						0.00416653	0.004930343	-0.02219113	
100.319	1.655163	96.3231	0	5						0.00215345	0.005206006	-0.02231605	
100.344	1.679554	96.3475	0	5						0.0007796297	0.005426577	-0.02238583	
100.361	1.697	96.36494	0	5						-0.001973141	0.005717675	-0.02260074	
100.378	1.715127	96.38307	0	5						-0.00343961	0.005969281	-0.0229397	
100.402	1.739563	96.40751	0	5						-0.006470177	0.006366371	-0.02339138	
100.418	1.755776	96.42372	0	5						-0.009639311	0.00665362	-0.02430152	
100.436	1.773679	96.44162	0	5						-0.01297247	0.006839808	-0.02527925	
100.456	1.79264	96.46059	0	5						-0.01637205	0.007025408	-0.02655243	
100.473	1.810717	96.47866	0	5						-0.01810376	0.007063424	-0.02777683	
100.492	1.829041	96.49699	0	5						-0.02181119	0.007307601	-0.02951684	
100.511	1.84797	96.51591	0	5						-0.0254273	0.007510619	-0.03163452	
100.529	1.865767	96.53371	0	5						-0.0270237	0.007496987	-0.03352719	
100.554	1.891474	96.55942	0	5						-0.03031194	0.007472605	-0.03630894	
100.573	1.910256	96.5782	0	5						-0.03309085	0.007286661	-0.04020425	
100.591	1.928452	96.5964	0	5						-0.03558859	0.006951856	-0.04410702	
100.624	1.945906	96.61385	0	5						-0.03762253	0.006509881	-0.04821954	
100.642	1.979099	96.64704	0	5						-0.03822143	0.006164104	-0.05062426	
100.659	1.995402	96.66335	0	5						-0.03880463	0.005845087	-0.05337715	
100.678	2.014668	96.68261	0	5						-0.04062354	0.004542695	-0.06162575	
100.694	2.03124	96.69918	0	5						-0.04058644	0.004195408	-0.06398833	
100.718	2.055006	96.72295	0	5						-0.04068288	0.003474064	-0.0682613	
100.734	2.071569	96.73951	0	5						-0.04069796	0.003196595	-0.07058124	
100.754	2.09084	96.75878	0	5						-0.04042658	0.002582456	-0.074835	
100.771	2.108023	96.77596	0	5						-0.03997729	0.002024924	-0.07910581	
100.788	2.125629	96.79357	0	5						-0.03974421	0.001726448	-0.08130109	
100.807	2.144519	96.81246	0	5						-0.03891083	0.001104715	-0.08557581	
100.826	2.162589	96.83054	0	5						-0.03789956	0.0004188037	-0.08983697	
100.844	2.180766	96.84871	0	5						-0.0366471	-0.0002644307	-0.09405061	
100.867	2.203583	96.87153	0	5						-0.03597378	-0.0004070641	-0.09596621	
100.890	2.22685	96.89479	0	5						-0.03443572	-0.000931401	-0.09979455	
100.907	2.244128	96.91207	0	5						-0.03278599	-0.00142615	-0.1033256	
100.922	2.259518	96.92746	0	5						-0.03082884	-0.001856361	-0.1068451	
100.940	2.277482	96.94543	0	5						-0.02863609	-0.002205544	-0.1102526	
100.959	2.296036	96.96398	0	5						-0.02792302	-0.002285506	-0.1115177	
100.976	2.313189	96.98113	0	5						-0.02560896	-0.002563312	-0.1145511	
100.994	2.331359	96.99931	0	5						-0.02467838	-0.002629496	-0.1158659	
101.015	2.351835	97.01978	0	5						-0.02397267	-0.002624693	-0.1171153	
101.038	2.373116	97.04106	0	5						-0.02151912	-0.002828113	-0.119973	
101.059	2.396169	97.06411	0	5						-0.01909151	-0.003007191	-0.1228042	
101.081	2.417762	97.08571	0	5						-0.01630138	-0.003243116	-0.1257878	
101.098	2.435481	97.10342	0	5						-0.01354553	-0.003445588	-0.1288638	
101.118	2.45537	97.12331	0	5						-0.0101088	-0.003739122	-0.1321836	
101.139	2.475934	97.14388	0	5						-0.006763031	-0.003981703	-0.1354747	
101.158	2.494793	97.16273	0	5						-0.003039924	-0.004280385	-0.1388184	
101.176	2.513149	97.18109	0	5						-0.001535852	-0.00435797	-0.1403568	
101.192	2.529522	97.19746	0	5						0.00261843	-0.004677569	-0.1435938	
101.221	2.557301	97.22524	0	5						0.007270506	-0.005023138	-0.1468177	
101.241	2.57783	97.24577	0	5						0.01134835	-0.005228543	-0.1494793	
101.263	2.599464	97.26741	0	5						0.01307951	-0.005302182	-0.1506438	
101.280	2.616981	97.28493	0	5						0.021329	-0.005783995	-0.1547329	
101.300	2.637153	97.3051	0	5						0.02300512	-0.005968593	-0.1557471	
101.318	2.654779	97.32272	0	5						0.02849055	-0.006382026	-0.1581023	
101.337	2.674373	97.34232	0	5						0.0342097	-0.006867195	-0.1604318	
101.355	2.69251	97.36045	0	5						0.03636256	-0.007012689	-0.1615014	
101.380	2.717549	97.38549	0	5						0.04229919	-0.007503938	-0.1637798	
101.404	2.740457	97.4084	0	5						0.04762518	-0.007911104	-0.1660617	
101.423	2.759068	97.42701	0	5						0.05353878	-0.008500266	-0.1681728	
101.440	2.776629	97.44457	0	5						0.05981052	-0.009174988	-0.1702151	
101.458	2.79531	97.46326	0	5						0.06644958	-0.009645652	-0.1724521	
101.479	2.815813	97.48376	0	5						0.07284985	-0.009897263	-0.1744359	
101.495	2.832283	97.50023	0	5						0.07486474	-0.01000287	-0.1752163	
101.513	2.850817	97.51876	0	5						0.08092716	-0.01033312	-0.1767192	
101.553	2.890326	97.55827	0	5						0.08669103	-0.01039871	-0.1779856	
101.571	2.908596	97.57654	0	5						0.08701795	-0.01013643	-0.178618	
101.589	2.925995	97.59394	0	5						0.09478379	-0.01006326	-0.1797515	
101.608	2.944997	97.61294	0	5						0.09927747	-0.00996324	-0.1803663	
101.625	2.962398	97.63034	0	5						0.103368	-0.0103307	-0.1806885	
101.644	2.981508	97.64945	0	5						0.1075759	-0.01067119	-0.1807658	
101.666	3.002272	97.67021	0	5						0.1109525	-0.01070092	-0.1807236	
101.689	3.026463	97.6944	0	5						0.1142857	-0.01091098	-0.1806272	
101.706	3.043181	97.71112	0	5						0.1144851	-0.01087438	-0.1809106	
101.725	3.062281	97.73022	0	5						0.1153141	-0.01084974	-0.1811358	
101.742	3.079666	97.74761	0	5						0.1202735	-0.01109625	-0.1808578	
101.761	3.097502	97.76544	0	5						0.1205664	-0.01105169	-0.1809846	
101.778	3.115092	97.78304	0	5						0.1209075	-0.01100192	-0.1811003	
101.798	3.135122	97.80306	0	5						0.1226661	-0.01105223	-0.1807922	
101.814	3.151702	97.81965	0	5						0.1241064	-0.01092782	-0.1806378	
101.833	3.170228	97.83817	0	5						0.1243852	-0.01075445	-0.180866	
101.861	3.19767	97.86562	0	5						0.1258562	-0.01077047	-0.180763	
101.882	3.219566	97.88751	0	5						0.1268796	-0.01086548	-0.1812534	
101.899	3.236315	97.90426	0	5						0.1285742	-0.01109791	-0.1815125	
101.928	3.264788	97.93273	0	5						0.1307754	-0.01156778	-0.1815976	
101.947	3.283678	97.95162	0	5						0.1324145	-0.01209237	-0.1826254	
101.967	3.303162	97.97111	0	5						0.1343934	-0.01270423	-0.1832168	
101.985	3.321362	97.9893	0	5						0.1363301	-0.01336943	-0.183763	
102.012	3.349035	98.01698	0	5						0.1385602	-0.01387625	-0.1841945	
102.034	3.371398	98.03934	0	5						0.1401851	-0.01405942	-0.1851438	
102.055	3.391832	98.05978	0	5						0.1420265	-0.01448025	-0.1856728	
102.073	3.409948	98.07789	0	5						0.1434799	-0.01466612	-0.1866246	
102.091	3.428251	98.09619	0	5						0.1450924	-0.01486935	-0.1874186	
102.111	3.447985	98.11593	0	5						0.1467346	-0.01519267	-0.1880372	
102.134	3.470476	98.13842	0	5						0.1485492	-0.01562794	-0.1887418	
102.156	3.492372	98.16032	0	5						0.1489179	-0.01584867	-0.189586	
102.183	3.519671	98.18761	0	5						0.1500448	-0.01625727	-0.1905402	
102.203	3.540334	98.20827	0	5						0.1509742	-0.0165238	-0.1914329	
102.219	3.555966	98.22391	0	5						0.1522067	-0.01694132	-0.1918179	
102.238	3.575692	98.24364	0	5						0.1536068	-0.01738963	-0.1918508	
102.260	3.597337	98.26528	0	5						0.1547672	-0.01747304	-0.1921561	
102.281	3.617882	98.28583	0	5						0.1557286	-0.01735849	-0.1923873	
102.299	3.636099	98.30404	0	5						0.1556867	-0.01725499	-0.192983	
102.320	3.657107	98.32505	0	5						0.1574792	-0.0174163	-0.1921272	
102.347	3.657107	98.35172	1	5	180	0	2.622683E-08	0	-0.3	0.1565542	-0.01705085	-0.1931629	
102.347	3.683769	98.35172	0	5						0.1565542	-0.01705085	-0.1931629	
102.366	3.702752	98.3707	0	5						0.1566425	-0.01669927	-0.1934524	
102.386	3.72288	98.39082	0	5						0.1579423	-0.01636769	-0.1913605	
102.403	3.740461	98.4084	0	5						0.1573011	-0.0160009	-0.1912498	
102.418	3.754638	98.42258	0	5						0.1570391	-0.01532814	-0.1899167	
102.431	3.76878	98.43672	0	5						0.1564074	-0.01464573	-0.189372	
102.451	3.788028	98.45597	0	5						0.1556625	-0.01404011	-0.1886548	
102.474	3.810827	98.47877	0	5						0.1540527	-0.01285335	-0.1864183	
102.496	3.832955	98.5009	0	5						0.1519453	-0.01158184	-0.1833298	
102.529	3.865974	98.53392	0	5						0.1504174	-0.01083192	-0.1817826	
102.550	3.887484	98.55543	0	5						0.1465071	-0.008900676	-0.1750867	
102.570	3.907364	98.57531	0	5						0.1425687	-0.007029549	-0.1665642	
102.589	3.925878	98.59382	0	5						0.1402313	-0.005820813	-0.1606621	
102.607	3.943998	98.61194	0	5						0.1383123	-0.004811509	-0.1543457	
102.629	3.964412	98.63235	0	5						0.1378226	-0.004472391	-0.1513106	
102.653	3.990699	98.65865	0	5						0.1374285	-0.004048874	-0.1484868	
102.671	4.007844	98.67579	0	5						0.1367981	-0.003343094	-0.1421925	
102.689	4.025906	98.69385	0	5						0.1366844	-0.002844654	-0.1357074	
102.709	4.045017	98.71296	0	5						0.1370445	-0.002651819	-0.1295256	
102.728	4.065095	98.73304	0	5						0.1379318	-0.002605271	-0.1238286	
102.748	4.085221	98.75317	0	5						0.1392162	-0.002525727	-0.1186366	
102.765	4.102456	98.7704	0	5						0.1400393	-0.002409447	-0.1164545	
102.785	4.122137	98.79008	0	5						0.1415514	-0.00244888	-0.1116431	
102.809	4.146725	98.81467	0	5						0.1432088	-0.002620473	-0.1075258	
102.828	4.164894	98.83284	0	5						0.1450436	-0.002899126	-0.1038896	
102.846	4.183455	98.85139	0	5						0.1467292	-0.003280673	-0.1006314	
102.864	4.201283	98.86922	0	5						0.1475347	-0.00356306	-0.09929794	
102.884	4.220955	98.8889	0	5						0.1490463	-0.004289546	-0.09670135	
102.905	4.242073	98.91002	0	5						0.1496326	-0.004701308	-0.09561615	
102.922	4.259458	98.9274	0	5						0.1507747	-0.005372357	-0.09357078	
102.941	4.27789	98.94583	0	5						0.1516371	-0.00607733	-0.09185879	
102.963	4.300318	98.96826	0	5						0.1523674	-0.006774854	-0.09030131	
102.980	4.317731	98.98567	0	5						0.1528394	-0.007249263	-0.08874682	
103.005	4.34215	99.01009	0	5						0.1532191	-0.007500718	-0.08735422	
103.023	4.360375	99.02832	0	5						0.1537017	-0.007728362	-0.08618528	
103.041	4.377474	99.04542	0	5						0.1539288	-0.008066759	-0.08511931	
103.059	4.39622	99.06416	0	5						0.1540948	-0.008343915	-0.08398589	
103.079	4.415325	99.08327	0	5						0.1541742	-0.008619817	-0.08289711	
103.096	4.432717	99.10066	0	5						0.1544621	-0.008835988	-0.08199015	
103.120	4.456744	99.12469	0	5						0.1546163	-0.008981865	-0.08122585	
103.136	4.473094	99.14104	0	5						0.1545882	-0.009161809	-0.07998063	
103.155	4.492013	99.15996	0	5						0.1542376	-0.009261686	-0.07898472	
103.173	4.510169	99.17811	0	5						0.1537633	-0.009376415	-0.07809155	
103.194	4.531044	99.19899	0	5						0.1531897	-0.009534571	-0.07730053	
103.211	4.547967	99.21591	0	5						0.1537227	-0.009742554	-0.07633331	
103.229	4.565957	99.2339	0	5						0.1531154	-0.009922713	-0.07571731	
103.246	4.582785	99.25073	0	5						0.152566	-0.01009574	-0.07508598	
103.264	4.601461	99.2694	0	5						0.1527682	-0.01023078	-0.07446509	
103.287	4.623677	99.29162	0	5						0.1522512	-0.01039974	-0.07389982	
103.309	4.645975	99.31392	0	5						0.1518859	-0.01062639	-0.07328081	
103.327	4.663846	99.33179	0	5						0.1513752	-0.01074022	-0.07281768	
103.348	4.684858	99.3528	0	5						0.1516382	-0.01085053	-0.07229816	
103.365	4.702222	99.37016	0	5						0.1498295	-0.0109776	-0.07231062	
103.384	4.721294	99.38924	0	5						0.1499475	-0.011149	-0.07195575	
103.402	4.738572	99.40652	0	5						0.1491516	-0.01125235	-0.0717556	
103.423	4.759426	99.42737	0	5						0.148043	-0.01128696	-0.07165888	
103.446	4.782836	99.45078	0	5						0.1481854	-0.01134101	-0.07120156	
103.479	4.81563	99.48357	0	5						0.1486269	-0.01144976	-0.07064617	
103.497	4.833704	99.50165	0	5						0.1474237	-0.01144471	-0.07029331	
103.517	4.854194	99.52214	0	5						0.1449394	-0.01131045	-0.07056428	
103.541	4.854194	99.54439	1	2	90	0	-0.3	0	-1.311342E-08	0.1438062	-0.01123937	-0.07060792	
103.541	4.876442	99.54439	0	2						0.1438062	-0.01123937	-0.07060792	
103.560	4.897187	99.56513	0	2						0.1442999	-0.01127088	-0.07028817	
103.579	4.914661	99.5826	0	2						0.1436054	-0.01117454	-0.07029358	
103.604	4.94097	99.60892	0	2						0.1424641	-0.01096471	-0.07051378	
103.628	4.962552	99.63049	0	2						0.1423771	-0.010882	-0.07041974	
103.648	4.985183	99.65313	0	2						0.1406479	-0.01053948	-0.07090518	
103.665	5.002072	99.67001	0	2						0.1403484	-0.01037897	-0.0710577	
103.684	5.020299	99.68824	0	2						0.1404243	-0.01030562	-0.07102941	
103.701	5.037444	99.70539	0	2						0.1397263	-0.01007909	-0.07127046	
103.721	5.05748	99.72543	0	2						0.1399211	-0.009994274	-0.07123353	
103.740	5.075912	99.74386	0	2						0.1393079	-0.00980103	-0.07152868	
103.765	5.101902	99.76984	0	2						0.138354	-0.009596411	-0.07190476	
103.784	5.120612	99.78856	0	2						0.1387409	-0.009559215	-0.07183942	
103.804	5.140399	99.80834	0	2						0.1366492	-0.009269676	-0.07254804	
103.824	5.161039	99.82899	0	2						0.1352633	-0.00901743	-0.07297258	
103.843	5.180022	99.84797	0	2						0.1348816	-0.008950163	-0.07298041	
103.861	5.198281	99.86623	0	2						0.1324681	-0.008735538	-0.07350489	
103.879	5.215312	99.88326	0	2						0.1292976	-0.008602473	-0.07419064	
103.899	5.235998	99.90394	0	2						0.1254021	-0.008528181	-0.07516294	
103.924	5.26163	99.92957	0	2						0.1234334	-0.00866018	-0.07591348	
103.942	5.278948	99.94689	0	2						0.1219611	-0.008764847	-0.07677363	
103.961	5.297776	99.96572	0	2						0.111026	-0.008859035	-0.08079129	
103.983	5.319746	99.98769	0	2						0.109133	-0.008891133	-0.08235911	
104.001	5.338539	100.0065	0	2						0.1077196	-0.008839678	-0.08399445	
104.019	5.356376	100.0243	0	2						0.1031891	-0.008768472	-0.08717199	
104.039	5.375302	100.0432	0	2						0.09879383	-0.008604924	-0.09076855	
104.059	5.396295	100.0642	0	2						0.09497868	-0.008479415	-0.09468808	
104.090	5.42635	100.0943	0	2						0.09420925	-0.008454122	-0.09676293	
104.109	5.445724	100.1137	0	2						0.09226502	-0.008451002	-0.1004532	
104.126	5.463275	100.1312	0	2						0.08775809	-0.008435233	-0.1061532	
104.146	5.483124	100.1511	0	2						0.0856258	-0.008430007	-0.1095995	
104.164	5.50149	100.1694	0	2						0.08407053	-0.008502318	-0.1128574	
104.184	5.520957	100.1889	0	2						0.0852972	-0.008599758	-0.1124695	
104.202	5.538487	100.2064	0	2						0.0840823	-0.008785838	-0.1155172	
104.222	5.557825	100.2258	0	2						0.08278634	-0.008903908	-0.1186332	
104.246	5.582774	100.2507	0	2						0.08192819	-0.009071362	-0.1215535	
