Time	keytime	time-time	keypress	target id	target_lon	target_lat	target_x	target_y	target_z	hmd_rx	hmd_ry	hmd_rz	
92.399	0.01208374	88.37027	0	7						-0.01244467	-0.01201963	-0.01908799	
92.406	0.02150477	88.37969	0	7						-0.01245352	-0.01201632	-0.01907704	
92.421	0.03571434	88.39391	0	7						-0.01244127	-0.01201716	-0.01905942	
92.431	0.0452132	88.4034	0	7						-0.012446	-0.01201679	-0.01904312	
92.439	0.05385793	88.41205	0	7						-0.01245688	-0.01201239	-0.01903327	
92.451	0.06488883	88.42308	0	7						-0.01245967	-0.01200582	-0.01902314	
92.463	0.07739016	88.43558	0	7						-0.01244889	-0.01200465	-0.01901515	
92.473	0.08752625	88.44572	0	7						-0.01248052	-0.01200037	-0.01900518	
92.485	0.1001493	88.45834	0	7						-0.01247194	-0.01200039	-0.01899251	
92.497	0.1112161	88.46941	0	7						-0.01249462	-0.01200205	-0.01897888	
92.507	0.1217943	88.47998	0	7						-0.01251527	-0.01201024	-0.01897226	
92.518	0.1332258	88.49142	0	7						-0.01252652	-0.01201277	-0.01897572	
92.544	0.143077	88.50127	0	7						-0.01253465	-0.01203018	-0.0189781	
92.555	0.1700099	88.5282	0	7						-0.01254618	-0.01204456	-0.01897636	
92.566	0.1811171	88.53931	0	7						-0.01258644	-0.01210311	-0.01897114	
92.571	0.1863951	88.54459	0	7						-0.01258874	-0.0121187	-0.01898138	
92.583	0.1977511	88.55594	0	7						-0.01260205	-0.01213627	-0.01897711	
92.594	0.2093596	88.56755	0	7						-0.01261247	-0.01216004	-0.01898266	
92.605	0.2203925	88.57858	0	7						-0.01261973	-0.01217819	-0.01898643	
92.617	0.2312472	88.58944	0	7						-0.0126214	-0.01220428	-0.01897966	
92.627	0.2421675	88.60036	0	7						-0.01261959	-0.01221453	-0.0189849	
92.640	0.254766	88.61295	0	7						-0.01261432	-0.01223174	-0.01898438	
92.650	0.264812	88.623	0	7						-0.01260152	-0.01225475	-0.01898746	
92.661	0.2764237	88.63461	0	7						-0.01258222	-0.01226319	-0.01899427	
92.673	0.287468	88.64566	0	7						-0.01255679	-0.01227613	-0.0190147	
92.684	0.2993202	88.65751	0	7						-0.01252076	-0.01227501	-0.01904381	
92.695	0.3092904	88.66748	0	7						-0.01247442	-0.01227564	-0.01908341	
92.707	0.321576	88.67976	0	7						-0.01242207	-0.01227617	-0.0191065	
92.718	0.3323837	88.69057	0	7						-0.01238309	-0.01225255	-0.01913853	
92.728	0.3427303	88.70092	0	7						-0.0123205	-0.01224	-0.01916238	
92.739	0.353702	88.71189	0	7						-0.01222959	-0.01222265	-0.01918789	
92.751	0.3652157	88.7234	0	7						-0.01206431	-0.01217584	-0.01927597	
92.762	0.3764002	88.73459	0	7						-0.01188866	-0.01215362	-0.01933801	
92.773	0.3874252	88.74561	0	7						-0.01172294	-0.01214718	-0.01939826	
92.785	0.3992245	88.75742	0	7						-0.01148553	-0.01215203	-0.01945683	
92.795	0.4099706	88.76816	0	7						-0.01123808	-0.01214207	-0.01950736	
92.806	0.4206226	88.77881	0	7						-0.01096043	-0.01209957	-0.01958783	
92.818	0.4322797	88.79047	0	7						-0.01067016	-0.01210476	-0.01963647	
92.841	0.4556839	88.81387	0	7						-0.01037735	-0.01208902	-0.01970129	
92.850	0.4654214	88.82361	0	7						-0.01005844	-0.01215991	-0.01971507	
92.861	0.4766696	88.83486	0	7						-0.00937701	-0.01214733	-0.01991655	
92.872	0.4871545	88.84534	0	7						-0.009050553	-0.01216768	-0.02000841	
92.887	0.5009702	88.85916	0	7						-0.008704923	-0.01220052	-0.02011004	
92.896	0.5105426	88.86873	0	7						-0.00845756	-0.01223064	-0.02017286	
92.905	0.5201473	88.87833	0	7						-0.008184355	-0.01228804	-0.02020718	
92.918	0.5325539	88.89075	0	7						-0.007953238	-0.01230516	-0.02030177	
92.929	0.5430009	88.90119	0	7						-0.007670977	-0.01231908	-0.02040271	
92.940	0.5544252	88.91261	0	7						-0.007581502	-0.0123211	-0.0203538	
92.951	0.5660219	88.92421	0	7						-0.007454954	-0.012415	-0.02028788	
92.964	0.5783494	88.93654	0	7						-0.007371052	-0.01241048	-0.02028473	
92.973	0.5872339	88.94543	0	7						-0.007383213	-0.01243343	-0.02024315	
92.985	0.5995401	88.95773	0	7						-0.007358459	-0.01242876	-0.0202234	
92.996	0.6108518	88.96904	0	7						-0.007404752	-0.01243104	-0.02022769	
93.006	0.6207248	88.97891	0	7						-0.007407762	-0.01243121	-0.02024485	
93.017	0.6323423	88.99053	0	7						-0.007467951	-0.01243453	-0.0202349	
93.029	0.6438367	89.00203	0	7						-0.007526502	-0.01246317	-0.02021768	
93.040	0.6542209	89.01241	0	7						-0.007701207	-0.01248084	-0.02017991	
93.051	0.6658009	89.02399	0	7						-0.007872254	-0.01250117	-0.02016707	
93.063	0.6775584	89.03575	0	7						-0.008096755	-0.01247518	-0.0201657	
93.073	0.6873729	89.04556	0	7						-0.008249916	-0.01250217	-0.02017362	
93.084	0.699521	89.05771	0	7						-0.008419127	-0.01251425	-0.02017003	
93.097	0.7114645	89.06966	0	7						-0.0086421	-0.0125165	-0.02015946	
93.107	0.7212202	89.07941	0	7						-0.008805335	-0.01251115	-0.02016984	
93.136	0.7502738	89.10847	0	7						-0.008997843	-0.01258	-0.02012941	
93.147	0.7613873	89.11958	0	7						-0.009065345	-0.01255779	-0.02023122	
93.152	0.7663347	89.12453	0	7						-0.009244554	-0.01257773	-0.02021069	
93.162	0.7768962	89.13509	0	7						-0.009705495	-0.01259117	-0.02009961	
93.173	0.7878386	89.14603	0	7						-0.00997552	-0.0126136	-0.01999246	
93.184	0.7991714	89.15736	0	7						-0.01017893	-0.01266816	-0.01990993	
93.195	0.8096212	89.16781	0	7						-0.01043182	-0.01266282	-0.01984739	
93.206	0.8205434	89.17873	0	7						-0.01057386	-0.01270472	-0.01982271	
93.218	0.8322116	89.1904	0	7						-0.01082119	-0.01268671	-0.01979578	
93.229	0.843666	89.20186	0	7						-0.01101738	-0.01271221	-0.01976696	
93.239	0.8537467	89.21194	0	7						-0.01120352	-0.0127251	-0.01974495	
93.252	0.8658953	89.22408	0	7						-0.01140584	-0.01273877	-0.01970007	
93.263	0.877601	89.23579	0	7						-0.01158517	-0.01277072	-0.0196715	
93.273	0.8871583	89.24535	0	7						-0.01177094	-0.01275065	-0.01966125	
93.286	0.8991168	89.25731	0	7						-0.01197478	-0.01275153	-0.01962256	
93.296	0.9103116	89.2685	0	7						-0.01212104	-0.0127	-0.01962663	
93.306	0.92093	89.27912	0	7						-0.01230043	-0.01270956	-0.01957174	
93.319	0.9340982	89.29229	0	7						-0.01243554	-0.01274017	-0.01949741	
93.330	0.9450648	89.30325	0	7						-0.0125158	-0.0127243	-0.01944768	
93.339	0.9541038	89.31229	0	7						-0.01263699	-0.0126669	-0.01946017	
93.352	0.9669449	89.32513	0	7						-0.01267397	-0.01266814	-0.01946412	
93.362	0.9770778	89.33527	0	7						-0.01266652	-0.01266304	-0.01947851	
93.372	0.9873411	89.34553	0	7						-0.01264656	-0.01265757	-0.0194885	
93.385	0.9996006	89.35779	0	7						-0.01262857	-0.01263311	-0.0195138	
93.396	1.010594	89.36878	0	7						-0.01262052	-0.01261131	-0.01951259	
93.406	1.02111	89.3793	0	7						-0.01264322	-0.01259678	-0.01949511	
93.419	1.034182	89.39237	0	7						-0.01265542	-0.0125912	-0.01948333	
93.443	1.058304	89.4165	0	7						-0.01270207	-0.01257202	-0.01948056	
93.452	1.067434	89.42562	0	7						-0.01268776	-0.01251346	-0.01952902	
93.462	1.076424	89.43462	0	7						-0.01270555	-0.01247878	-0.01956352	
93.472	1.08684	89.44503	0	7						-0.01271481	-0.01245297	-0.01958734	
93.484	1.098127	89.45631	0	7						-0.0127367	-0.01242341	-0.01962128	
93.497	1.111547	89.46973	0	7						-0.01272895	-0.01237541	-0.01968134	
93.505	1.12017	89.47836	0	7						-0.01276324	-0.01233184	-0.01973491	
93.519	1.133443	89.49163	0	7						-0.01280258	-0.01230275	-0.01977073	
93.529	1.143501	89.50169	0	7						-0.01289553	-0.01226445	-0.01984254	
93.539	1.153961	89.51215	0	7						-0.01294331	-0.01221899	-0.01991451	
93.551	1.165271	89.52346	0	7						-0.01300687	-0.01218572	-0.01995654	
93.562	1.176872	89.53506	0	7						-0.01313099	-0.01215426	-0.02003483	
93.572	1.1874	89.54559	0	7						-0.01319331	-0.01211357	-0.02009621	
93.585	1.199378	89.55756	0	7						-0.01327443	-0.01206614	-0.02018244	
93.596	1.211137	89.56933	0	7						-0.01334778	-0.01205389	-0.02026163	
93.605	1.220398	89.57859	0	7						-0.01337693	-0.01199431	-0.02035259	
93.618	1.232673	89.59087	0	7						-0.0134187	-0.01195646	-0.02044201	
93.629	1.243274	89.60146	0	7						-0.01348224	-0.01191696	-0.0205677	
93.641	1.255821	89.61401	0	7						-0.01349436	-0.01189614	-0.0206374	
93.652	1.267013	89.62521	0	7						-0.01353375	-0.01186362	-0.0207287	
93.664	1.279208	89.6374	0	7						-0.01358254	-0.01183326	-0.02076804	
93.674	1.288783	89.64697	0	7						-0.01364091	-0.01182488	-0.02080476	
93.685	1.299821	89.65801	0	7						-0.01367969	-0.01179623	-0.02082721	
93.696	1.310541	89.66873	0	7						-0.01374728	-0.01179076	-0.02084638	
93.706	1.320996	89.67918	0	7						-0.01383234	-0.01178507	-0.02086021	
93.719	1.33353	89.69172	0	7						-0.01390897	-0.01173931	-0.02091161	
93.729	1.344363	89.70255	0	7						-0.01400634	-0.01173743	-0.02093183	
93.748	1.363431	89.72162	0	7						-0.01405231	-0.01172106	-0.02092773	
93.759	1.373948	89.73214	0	7						-0.01411304	-0.01170683	-0.02096283	
93.769	1.383155	89.74135	0	7						-0.01412179	-0.01168756	-0.02101537	
93.779	1.394027	89.75221	0	7						-0.01411583	-0.01167488	-0.02104482	
93.785	1.399375	89.75757	0	7						-0.01410681	-0.01165151	-0.02111378	
93.796	1.411068	89.76926	0	7						-0.01409236	-0.01165403	-0.02113339	
93.807	1.421942	89.78013	0	7						-0.01405323	-0.01164925	-0.0211716	
93.819	1.43287	89.79106	0	7						-0.01401418	-0.01163506	-0.02123743	
93.829	1.443726	89.80192	0	7						-0.01395466	-0.01161896	-0.02127628	
93.839	1.454299	89.81248	0	7						-0.01390308	-0.01160521	-0.02129401	
93.853	1.467801	89.82599	0	7						-0.01384835	-0.01160623	-0.02131501	
93.862	1.477031	89.83522	0	7						-0.01378233	-0.01159501	-0.02133011	
93.873	1.488293	89.84648	0	7						-0.01374601	-0.01158996	-0.02133196	
93.885	1.500013	89.8582	0	7						-0.01366515	-0.01158431	-0.0213394	
93.896	1.510519	89.86871	0	7						-0.01361656	-0.01158103	-0.02133055	
93.906	1.520998	89.87919	0	7						-0.01356275	-0.0115651	-0.0213447	
93.919	1.533349	89.89154	0	7						-0.0135037	-0.01157095	-0.02134795	
93.928	1.543133	89.90132	0	7						-0.01341351	-0.01158209	-0.02136807	
93.939	1.554159	89.91235	0	7						-0.01335724	-0.01157196	-0.02138514	
93.951	1.566053	89.92424	0	7						-0.01329083	-0.01158201	-0.0213975	
93.964	1.57794	89.93613	0	7						-0.01323472	-0.01158455	-0.02140764	
93.973	1.588061	89.94625	0	7						-0.01319844	-0.01159162	-0.02140871	
93.985	1.588061	89.95713	1	7	180	-30	-3.785517E-08	-0.25	-0.4330127	-0.01314876	-0.01160199	-0.02141868	
93.985	1.598938	89.95713	0	7						-0.01314876	-0.01160199	-0.02141868	
93.996	1.610799	89.96899	0	7						-0.01312185	-0.01160909	-0.02142113	
94.006	1.621416	89.97961	0	7						-0.01307708	-0.01160492	-0.0214403	
94.018	1.632982	89.99117	0	7						-0.01306498	-0.01158954	-0.0214523	
94.044	1.659329	90.01752	0	7						-0.0130632	-0.0115944	-0.02144596	
94.055	1.670079	90.02827	0	7						-0.0130479	-0.01159063	-0.02145954	
94.068	1.68335	90.04154	0	7						-0.01304572	-0.01159278	-0.0214655	
94.079	1.693935	90.05212	0	7						-0.01302259	-0.01160502	-0.02148811	
94.085	1.700114	90.0583	0	7						-0.01304007	-0.01160422	-0.02148372	
94.095	1.710463	90.06866	0	7						-0.01302416	-0.01161375	-0.02149845	
94.106	1.72013	90.07832	0	7						-0.01302613	-0.01161918	-0.02151231	
94.116	1.730629	90.08882	0	7						-0.01303314	-0.01162644	-0.02151609	
94.127	1.74167	90.09986	0	7						-0.01302478	-0.01163725	-0.02152902	
94.140	1.753746	90.11194	0	7						-0.01300554	-0.01164714	-0.02156094	
94.151	1.76567	90.12386	0	7						-0.01302317	-0.01164666	-0.0215621	
94.161	1.775985	90.13418	0	7						-0.01303626	-0.01165771	-0.02155294	
94.173	1.787251	90.14544	0	7						-0.01305063	-0.01165325	-0.02154814	
94.185	1.79989	90.15808	0	7						-0.01304603	-0.0116517	-0.02155295	
94.196	1.810827	90.16901	0	7						-0.013034	-0.01164929	-0.02155523	
94.206	1.820721	90.17891	0	7						-0.01304985	-0.01165108	-0.02153138	
94.217	1.831868	90.19006	0	7						-0.01307562	-0.01165315	-0.02149774	
94.228	1.84311	90.2013	0	7						-0.01309623	-0.01165445	-0.02146079	
94.239	1.854228	90.21242	0	7						-0.01310098	-0.01164755	-0.02143409	
94.251	1.865291	90.22348	0	7						-0.01310541	-0.0116401	-0.02141734	
94.262	1.876829	90.23502	0	7						-0.01311392	-0.01163637	-0.02139455	
94.272	1.887239	90.24543	0	7						-0.01311215	-0.01163191	-0.02136519	
94.284	1.898691	90.25688	0	7						-0.01311318	-0.01163944	-0.02132479	
94.295	1.910121	90.26831	0	7						-0.01312724	-0.01163683	-0.0212842	
94.307	1.921852	90.28004	0	7						-0.01310963	-0.0116378	-0.02125865	
94.335	1.934559	90.29275	0	7						-0.01307262	-0.01165845	-0.02124837	
94.343	1.957706	90.3159	0	7						-0.01284777	-0.01166424	-0.0212859	
94.351	1.965581	90.32377	0	7						-0.01253856	-0.0116805	-0.02131595	
94.361	1.976023	90.33421	0	7						-0.01197391	-0.01169211	-0.02143359	
94.373	1.988054	90.34624	0	7						-0.01150544	-0.01172158	-0.0215284	
94.384	1.999276	90.35747	0	7						-0.01100962	-0.0116816	-0.02166063	
94.395	2.010035	90.36823	0	7						-0.01041257	-0.01169997	-0.02178148	
94.406	2.020703	90.37889	0	7						-0.009789221	-0.01174582	-0.02189218	
94.419	2.033876	90.39207	0	7						-0.009147696	-0.01177096	-0.02199108	
94.431	2.044134	90.40232	0	7						-0.008352634	-0.01184174	-0.02214561	
94.439	2.054015	90.4122	0	7						-0.007486083	-0.0119287	-0.02235515	
94.451	2.06584	90.42403	0	7						-0.006662909	-0.01195558	-0.02258866	
94.463	2.078181	90.43637	0	7						-0.005809012	-0.01205019	-0.022796	
94.473	2.087636	90.44582	0	7						-0.004845839	-0.01219123	-0.02299186	
94.485	2.099756	90.45795	0	7						-0.00389732	-0.01229858	-0.0232069	
94.497	2.111606	90.4698	0	7						-0.002826109	-0.01238324	-0.02350139	
94.506	2.120956	90.47915	0	7						-0.001699888	-0.0124814	-0.02382378	
94.518	2.13275	90.49094	0	7						-0.000521332	-0.01260844	-0.02415156	
94.530	2.144264	90.50246	0	7						0.0007454194	-0.01269019	-0.02455812	
94.540	2.154625	90.51282	0	7						0.002050813	-0.01277937	-0.02500273	
94.552	2.166463	90.52465	0	7						0.003458976	-0.01293772	-0.02550447	
94.564	2.178363	90.53655	0	7						0.004914588	-0.01302603	-0.02608946	
94.573	2.187647	90.54584	0	7						0.006505117	-0.01310248	-0.02674834	
94.587	2.200971	90.55916	0	7						0.008026911	-0.01321714	-0.0273295	
94.597	2.21177	90.56996	0	7						0.009677187	-0.01329223	-0.02807824	
94.607	2.222233	90.58042	0	7						0.01127939	-0.01335655	-0.02880588	
94.630	2.245273	90.60346	0	7						0.01289395	-0.01344435	-0.02957476	
94.640	2.255577	90.61377	0	7						0.01452296	-0.01350127	-0.03047437	
94.651	2.266526	90.62472	0	7						0.0177581	-0.01372147	-0.03206054	
94.662	2.277236	90.63543	0	7						0.01932877	-0.01378964	-0.03297429	
94.674	2.288979	90.64717	0	7						0.02083348	-0.01386257	-0.03382447	
94.687	2.301583	90.65977	0	7						0.02235462	-0.01393938	-0.03472298	
94.697	2.312089	90.67028	0	7						0.0238005	-0.01403794	-0.03557839	
94.707	2.321406	90.6796	0	7						0.0251917	-0.01406042	-0.03644103	
94.719	2.332795	90.69099	0	7						0.02657618	-0.01407174	-0.03732085	
94.729	2.344105	90.70229	0	7						0.02798069	-0.01414511	-0.03822465	
94.740	2.354855	90.71304	0	7						0.0292363	-0.0141826	-0.03903115	
94.753	2.367869	90.72606	0	7						0.0304809	-0.01426374	-0.03983163	
94.763	2.377774	90.73596	0	7						0.03168465	-0.01429923	-0.04064647	
94.773	2.388063	90.74625	0	7						0.03279046	-0.01432535	-0.04135004	
94.786	2.400885	90.75908	0	7						0.03387638	-0.01440454	-0.04198872	
94.795	2.410356	90.76855	0	7						0.03485332	-0.01447022	-0.0425638	
94.807	2.422032	90.78022	0	7						0.03588735	-0.01457639	-0.04321208	
94.819	2.434035	90.79223	0	7						0.03690335	-0.01466088	-0.04385778	
94.830	2.444171	90.80236	0	7						0.03791886	-0.01472118	-0.04454424	
94.840	2.454308	90.8125	0	7						0.03890513	-0.01475548	-0.04519991	
94.853	2.467559	90.82575	0	7						0.03985082	-0.01480967	-0.04581107	
94.864	2.477597	90.83578	0	7						0.04080917	-0.01487789	-0.04648767	
94.873	2.487776	90.84596	0	7						0.04179563	-0.01494737	-0.04724169	
94.885	2.499629	90.85782	0	7						0.04275555	-0.0150542	-0.04795438	
94.896	2.510864	90.86906	0	7						0.04374757	-0.01514513	-0.04875423	
94.907	2.521397	90.87959	0	7						0.04476954	-0.01526321	-0.04956312	
94.930	2.544904	90.90309	0	7						0.04572346	-0.01536619	-0.05029498	
94.939	2.554387	90.91257	0	7						0.04684822	-0.0155524	-0.05136021	
94.952	2.566734	90.92493	0	7						0.04879008	-0.01570171	-0.05294746	
94.963	2.577389	90.93558	0	7						0.04984573	-0.01579993	-0.05399586	
94.974	2.588375	90.94656	0	7						0.05079946	-0.01592343	-0.05489645	
94.985	2.600041	90.95823	0	7						0.05176277	-0.01607158	-0.05591466	
94.996	2.610863	90.96906	0	7						0.05273107	-0.01621028	-0.05695549	
95.007	2.621367	90.97956	0	7						0.05366122	-0.01638084	-0.05800188	
95.018	2.633015	90.9912	0	7						0.05451588	-0.01647131	-0.05897683	
95.030	2.644737	91.00293	0	7						0.05537578	-0.01664215	-0.0599826	
95.041	2.65589	91.01408	0	7						0.05620648	-0.01683292	-0.06100189	
95.052	2.666661	91.02485	0	7						0.05701884	-0.01705641	-0.06200107	
95.063	2.677834	91.03603	0	7						0.05777192	-0.01728038	-0.06296454	
95.074	2.688706	91.0469	0	7						0.05857976	-0.01746317	-0.06405596	
95.085	2.699352	91.05754	0	7						0.05941116	-0.0177176	-0.06512987	
95.096	2.710871	91.06906	0	7						0.06022585	-0.01797565	-0.06618576	
95.107	2.721633	91.07983	0	7						0.06102877	-0.01824286	-0.06719853	
95.118	2.732986	91.09118	0	7						0.061827	-0.018562	-0.0681756	
95.129	2.744067	91.10226	0	7						0.06282902	-0.01891935	-0.06939925	
95.140	2.755157	91.11335	0	7						0.06373685	-0.01932667	-0.07045589	
95.154	2.767665	91.12585	0	7						0.06462277	-0.01981433	-0.07156613	
95.163	2.778429	91.13662	0	7						0.06556195	-0.02037125	-0.07276823	
95.174	2.788466	91.14665	0	7						0.06635962	-0.02093377	-0.07370848	
95.188	2.80304	91.16123	0	7						0.06722245	-0.02152434	-0.07477102	
95.197	2.811811	91.17	0	7						0.06805906	-0.0221964	-0.07583552	
95.207	2.821963	91.18015	0	7						0.06878184	-0.02295374	-0.07668363	
95.234	2.848665	91.20686	0	7						0.06951955	-0.0237859	-0.07756803	
95.244	2.85849	91.21668	0	7						0.07054872	-0.0247118	-0.079027	
95.251	2.865892	91.22408	0	7						0.07172178	-0.02651988	-0.08003754	
95.261	2.87617	91.23436	0	7						0.07234763	-0.0274901	-0.0805884	
95.272	2.887002	91.24519	0	7						0.07304886	-0.02857844	-0.08125655	
95.285	2.899363	91.25755	0	7						0.07367957	-0.02965922	-0.08186904	
95.295	2.909819	91.26801	0	7						0.0743264	-0.03079398	-0.0825111	
95.307	2.921947	91.28014	0	7						0.07493591	-0.03190047	-0.08303764	
95.318	2.932549	91.29074	0	7						0.07552454	-0.03302063	-0.08352668	
95.328	2.943085	91.30128	0	7						0.07610241	-0.03411523	-0.08402684	
95.339	2.954023	91.31221	0	7						0.07675333	-0.03523621	-0.0845335	
95.351	2.965831	91.32402	0	7						0.07736371	-0.03632296	-0.08502054	
95.362	2.977103	91.33529	0	7						0.07798828	-0.03749046	-0.08564026	
95.374	2.988305	91.3465	0	7						0.07847948	-0.03867271	-0.08601577	
95.385	3.000112	91.3583	0	7						0.07891829	-0.03979516	-0.08633029	
95.396	3.011179	91.36937	0	7						0.07943107	-0.04090651	-0.08670155	
95.406	3.020937	91.37913	0	7						0.07993419	-0.0420217	-0.08706498	
95.418	3.032595	91.39079	0	7						0.08032986	-0.04310757	-0.08729887	
95.430	3.044562	91.40276	0	7						0.08080533	-0.04412024	-0.08768302	
95.440	3.054514	91.4127	0	7						0.08138345	-0.04508354	-0.08810527	
95.451	3.065761	91.42395	0	7						0.08178544	-0.0460416	-0.08838744	
95.463	3.077452	91.43564	0	7						0.08217894	-0.04701041	-0.08855289	
95.473	3.087821	91.44601	0	7						0.08250684	-0.04788721	-0.08886368	
95.484	3.099278	91.45747	0	7						0.08285066	-0.04873511	-0.08897524	
95.495	3.110039	91.46823	0	7						0.08319499	-0.04957862	-0.08921459	
95.518	3.133318	91.49151	0	7						0.08356573	-0.05028277	-0.08937209	
95.529	3.143804	91.50199	0	7						0.08392738	-0.05099628	-0.09029547	
95.540	3.155435	91.51363	0	7						0.08457558	-0.05230048	-0.09006356	
95.552	3.166828	91.52502	0	7						0.08488479	-0.05296878	-0.09020235	
95.564	3.178175	91.53636	0	7						0.08522798	-0.05355797	-0.09039628	
95.574	3.188952	91.54714	0	7						0.08556525	-0.05410301	-0.09058764	
95.585	3.199734	91.55792	0	7						0.08589132	-0.05460167	-0.09075877	
95.596	3.210978	91.56917	0	7						0.08618733	-0.05504279	-0.09087863	
95.607	3.221959	91.58015	0	7						0.08638749	-0.05549669	-0.09108271	
