Time	keytime	time-time	keypress	target id	target_lon	target_lat	target_x	target_y	target_z	hmd_rx	hmd_ry	hmd_rz	
55.543	0.01368532	51.54551	0	13						-0.0083194	0.02349275	0.03616817	
55.554	0.02689064	51.55872	0	13						-0.008115344	0.02344651	0.03609116	
55.560	0.03289716	51.56473	0	13						-0.00795518	0.02338497	0.03605043	
55.570	0.04344806	51.57528	0	13						-0.007852748	0.02333396	0.03601281	
55.578	0.05129161	51.58312	0	13						-0.00771004	0.02328329	0.03596776	
55.589	0.06224114	51.59407	0	13						-0.00760151	0.02323197	0.03593719	
55.599	0.07190157	51.60373	0	13						-0.00750953	0.02318126	0.03591051	
55.611	0.08405446	51.61588	0	13						-0.00746002	0.02313169	0.03589073	
55.622	0.09494037	51.62677	0	13						-0.00735743	0.0231125	0.03585047	
55.633	0.106087	51.63792	0	13						-0.007337417	0.02304367	0.03585144	
55.648	0.120295	51.65213	0	13						-0.007247329	0.0230864	0.03582445	
55.677	0.1307882	51.66262	0	13						-0.007191304	0.02302328	0.03581288	
55.690	0.1628945	51.69473	0	13						-0.007117871	0.02299806	0.03579433	
55.698	0.1712402	51.70307	0	13						-0.0069585	0.02293171	0.03576352	
55.710	0.1823133	51.71414	0	13						-0.006998915	0.0228602	0.03576269	
55.720	0.1931712	51.725	0	13						-0.006971153	0.02281367	0.03575101	
55.731	0.2040346	51.73586	0	13						-0.006979	0.02276476	0.03573849	
55.743	0.215461	51.74729	0	13						-0.006850381	0.02274642	0.03572048	
55.753	0.2265792	51.75841	0	13						-0.006803259	0.02266641	0.03570092	
55.764	0.2376642	51.76949	0	13						-0.006694303	0.02263852	0.03566393	
55.774	0.2475494	51.77938	0	13						-0.006525792	0.02260833	0.03563585	
55.785	0.2587253	51.79055	0	13						-0.006399833	0.02257222	0.03561224	
55.800	0.2735702	51.8054	0	13						-0.006169178	0.02255585	0.03558536	
55.811	0.2847318	51.81656	0	13						-0.005900003	0.02253493	0.03558963	
55.821	0.2938269	51.82566	0	13						-0.005655538	0.02250047	0.03559268	
55.830	0.3036015	51.83543	0	13						-0.005462294	0.02243496	0.03561923	
55.842	0.3145984	51.84643	0	13						-0.005219412	0.02243663	0.03559866	
55.852	0.3254354	51.85727	0	13						-0.004915405	0.02241231	0.03560718	
55.863	0.3363213	51.86815	0	13						-0.00461239	0.02238959	0.03559946	
55.875	0.3475762	51.87941	0	13						-0.004295725	0.02236502	0.03561741	
55.886	0.3588686	51.8907	0	13						-0.004021914	0.0223732	0.03561111	
55.897	0.3700611	51.90189	0	13						-0.003688873	0.02235257	0.03561299	
55.909	0.3819366	51.91376	0	13						-0.00337905	0.02228738	0.03563296	
55.920	0.392759	51.92459	0	13						-0.003052317	0.0222341	0.03565416	
55.930	0.4032652	51.9351	0	13						-0.002769918	0.0221779	0.03569046	
55.942	0.4149101	51.94674	0	13						-0.00243954	0.02212973	0.0356935	
55.971	0.4444571	51.97629	0	13						-0.002160269	0.02207478	0.0357323	
55.981	0.4540105	51.98584	0	13						-0.001563657	0.02206642	0.03571352	
55.991	0.4646641	51.99649	0	13						-0.001203905	0.02197383	0.03578812	
55.997	0.4700156	52.00185	0	13						-0.0008978369	0.02194148	0.03580343	
56.007	0.48019	52.01202	0	13						-0.0007880963	0.02191105	0.03587509	
56.018	0.4909317	52.02276	0	13						-0.0004551336	0.02186303	0.03588878	
56.030	0.5025963	52.03443	0	13						-0.0002273507	0.02181845	0.03593503	
56.040	0.5129185	52.04475	0	13						5.44861E-05	0.02179742	0.03597	
56.050	0.5231778	52.05501	0	13						0.0002747513	0.02174755	0.03605149	
56.061	0.5334893	52.06532	0	13						0.0005014651	0.02174836	0.03609848	
56.072	0.5449571	52.07679	0	13						0.0007104911	0.02172124	0.03611086	
56.081	0.5541648	52.08599	0	13						0.0009247512	0.02167393	0.03614261	
56.092	0.5651432	52.09697	0	13						0.001053665	0.0216647	0.03617941	
56.109	0.5815209	52.11335	0	13						0.00128167	0.0216198	0.03624001	
56.119	0.5923613	52.12419	0	13						0.001579587	0.02159524	0.03627232	
56.125	0.5980854	52.12991	0	13						0.001793937	0.02157405	0.03631836	
56.136	0.6092581	52.14109	0	13						0.001875977	0.02153328	0.0363702	
56.145	0.6184235	52.15025	0	13						0.002108477	0.0215109	0.03640379	
56.156	0.6294497	52.16128	0	13						0.002288532	0.02148658	0.03642549	
56.167	0.6408251	52.17265	0	13						0.00245975	0.02144289	0.03645153	
56.178	0.6513401	52.18317	0	13						0.00268181	0.02142525	0.03648862	
56.189	0.662429	52.19426	0	13						0.002846367	0.02137945	0.0365614	
56.200	0.6730195	52.20485	0	13						0.003072336	0.02137356	0.03655093	
56.211	0.6841752	52.216	0	13						0.00325793	0.02134998	0.03658642	
56.221	0.6944535	52.22628	0	13						0.003418167	0.02129982	0.03661808	
56.232	0.7047744	52.2366	0	13						0.003567184	0.02126808	0.03659989	
56.257	0.730425	52.26225	0	13						0.003727127	0.02123058	0.03660337	
56.270	0.7432112	52.27504	0	13						0.004119772	0.02116825	0.03660787	
56.280	0.752917	52.28475	0	13						0.004282918	0.02115068	0.03662112	
56.289	0.7620287	52.29386	0	13						0.004414751	0.02114314	0.03661743	
56.297	0.7706015	52.30243	0	13						0.004498031	0.02113392	0.03662945	
56.309	0.781532	52.31336	0	13						0.004617345	0.02111644	0.03663332	
56.320	0.7926088	52.32444	0	13						0.004734186	0.02109883	0.0366183	
56.330	0.8030941	52.33492	0	13						0.004863125	0.02107305	0.03661046	
56.342	0.8149258	52.34676	0	13						0.004960406	0.02103597	0.03660127	
56.353	0.8259785	52.35781	0	13						0.005046173	0.0210127	0.03658441	
56.363	0.8364772	52.36831	0	13						0.005103567	0.02099074	0.036584	
56.377	0.8497367	52.38157	0	13						0.005163535	0.02094547	0.03657024	
56.386	0.8592411	52.39107	0	13						0.00523188	0.02090822	0.03652771	
56.397	0.8700634	52.40189	0	13						0.005282365	0.02088981	0.03650097	
56.410	0.8825635	52.41439	0	13						0.005301207	0.0208898	0.036459	
56.425	0.8981602	52.42999	0	13						0.005395658	0.02085052	0.03640446	
56.431	0.9038376	52.43567	0	13						0.005371727	0.02082509	0.03631165	
56.443	0.9156586	52.44749	0	13						0.005424597	0.0208067	0.03630611	
56.452	0.9255893	52.45742	0	13						0.005384721	0.02082282	0.03622688	
56.463	0.936438	52.46827	0	13						0.005395003	0.02079738	0.03614962	
56.477	0.9496212	52.48145	0	13						0.005409736	0.02079984	0.03607524	
56.487	0.9591228	52.49095	0	13						0.005411021	0.02079089	0.03600453	
56.497	0.9702624	52.50209	0	13						0.005428605	0.02079998	0.03594109	
56.508	0.9815379	52.51337	0	13						0.005357593	0.02083557	0.03585666	
56.521	0.9937457	52.52557	0	13						0.005427811	0.02083867	0.03580645	
56.530	1.003115	52.53495	0	13						0.005371712	0.0208774	0.03570334	
56.561	1.034484	52.56631	0	13						0.005379442	0.02090821	0.03562822	
56.577	1.049411	52.58124	0	13						0.005429403	0.02098009	0.03540945	
56.586	1.0589	52.59073	0	13						0.00532658	0.02107284	0.03525418	
56.594	1.067498	52.59933	0	13						0.005292539	0.02109811	0.03516984	
56.606	1.078796	52.61063	0	13						0.00522659	0.02114022	0.03508934	
56.616	1.089399	52.62123	0	13						0.005233948	0.02119395	0.03501857	
56.627	1.10051	52.63234	0	13						0.005203336	0.02126543	0.03488979	
56.637	1.110856	52.64268	0	13						0.005171973	0.02132505	0.03479222	
56.648	1.12132	52.65315	0	13						0.005151108	0.02138899	0.03469442	
56.658	1.131573	52.6634	0	13						0.005102866	0.02145914	0.03460053	
56.669	1.142115	52.67395	0	13						0.005091157	0.02151675	0.03451896	
56.680	1.153337	52.68517	0	13						0.005021498	0.02159116	0.03441814	
56.690	1.162896	52.69473	0	13						0.004919776	0.02168596	0.03428864	
56.701	1.173819	52.70565	0	13						0.004862289	0.02174577	0.03421088	
56.713	1.186615	52.71844	0	13						0.004778464	0.02182164	0.03409893	
56.727	1.19963	52.73146	0	13						0.004725568	0.02190803	0.03398239	
56.736	1.209101	52.74093	0	13						0.004694331	0.02196822	0.03387494	
56.746	1.218642	52.75047	0	13						0.004601848	0.02201925	0.03379837	
56.754	1.227445	52.75927	0	13						0.004491016	0.02209814	0.03372266	
56.765	1.238012	52.76984	0	13						0.004381952	0.02216981	0.03362434	
56.778	1.250863	52.78269	0	13						0.00425341	0.0222451	0.03356629	
56.787	1.260406	52.79224	0	13						0.004198719	0.02230182	0.03351682	
56.797	1.270726	52.80256	0	13						0.004011646	0.02238248	0.03347153	
56.810	1.282622	52.81445	0	13						0.0038522	0.02245462	0.03341777	
56.821	1.293832	52.82566	0	13						0.003750571	0.02249807	0.03337598	
56.830	1.30395	52.83578	0	13						0.003559408	0.02255662	0.03333828	
56.859	1.331463	52.86329	0	13						0.003380449	0.02260406	0.03333209	
56.868	1.341095	52.87292	0	13						0.003285579	0.02267354	0.03330196	
56.881	1.354472	52.8863	0	13						0.002770737	0.02279318	0.03332844	
56.891	1.363692	52.89552	0	13						0.002580174	0.02281049	0.03331585	
56.897	1.369997	52.90182	0	13						0.002309758	0.02287555	0.03333424	
56.909	1.382028	52.91386	0	13						0.002048641	0.02289521	0.03334395	
56.919	1.391886	52.92372	0	13						0.001761644	0.02291872	0.03333807	
56.929	1.402472	52.9343	0	13						0.001523842	0.02295585	0.03329602	
56.941	1.413905	52.94574	0	13						0.001250669	0.02287591	0.03332612	
56.951	1.424159	52.95599	0	13						0.0009539984	0.02289108	0.03333186	
56.962	1.435698	52.96753	0	13						0.000637874	0.02286278	0.03333328	
56.973	1.446246	52.97808	0	13						0.0003414899	0.02274881	0.03336039	
56.984	1.457309	52.98914	0	13						1.499802E-05	0.02268694	0.03333838	
56.996	1.468767	53.0006	0	13						-0.0002891235	0.02253249	0.03334119	
57.006	1.479561	53.01139	0	13						-0.0006212629	0.02240342	0.0333258	
57.018	1.489802	53.02163	0	13						-0.0009340793	0.02228586	0.03333597	
57.028	1.501159	53.03299	0	13						-0.0009584315	0.02225105	0.03331454	
57.042	1.515039	53.04687	0	13						-0.001324207	0.02207776	0.03334359	
57.053	1.526283	53.05811	0	13						-0.001618463	0.02195976	0.03333281	
57.059	1.532195	53.06403	0	13						-0.001966997	0.02182015	0.03337299	
57.069	1.542307	53.07413	0	13						-0.002269126	0.0216983	0.03340418	
57.078	1.551574	53.0834	0	13						-0.002569498	0.02163417	0.03343288	
57.089	1.562272	53.0941	0	13						-0.002846565	0.02156761	0.03348114	
57.101	1.574422	53.10625	0	13						-0.003156677	0.02158149	0.03355006	
57.111	1.584531	53.11636	0	13						-0.003418017	0.02161428	0.03361258	
57.122	1.595125	53.12695	0	13						-0.003684101	0.02167949	0.03366504	
57.150	1.622949	53.15478	0	13						-0.003956553	0.02174912	0.03372804	
57.158	1.631506	53.16333	0	13						-0.004259057	0.02187567	0.03373262	
57.165	1.637915	53.16975	0	13						-0.004730072	0.0220954	0.03380122	
57.175	1.648247	53.18008	0	13						-0.00491596	0.02219874	0.0338279	
57.186	1.659209	53.19104	0	13						-0.005173016	0.02235247	0.03383301	
57.201	1.674585	53.20641	0	13						-0.005398471	0.02252667	0.03380751	
57.211	1.683016	53.21484	0	13						-0.005621211	0.02270033	0.03376985	
57.221	1.69423	53.22606	0	13						-0.005816755	0.02288548	0.03371555	
57.231	1.703679	53.23551	0	13						-0.005975873	0.02301501	0.0336847	
57.241	1.714132	53.24596	0	13						-0.006169409	0.02314367	0.03363457	
57.253	1.725664	53.25749	0	13						-0.006339174	0.02325618	0.03358657	
57.264	1.736524	53.26835	0	13						-0.006447054	0.02336001	0.03353293	
57.276	1.748857	53.28069	0	13						-0.006579105	0.02346021	0.03346591	
57.287	1.759609	53.29144	0	13						-0.006621104	0.02346958	0.03344053	
57.297	1.769678	53.30151	0	13						-0.006702468	0.02354255	0.03335352	
57.309	1.782121	53.31395	0	13						-0.006680179	0.02352264	0.03329819	
57.319	1.792276	53.3241	0	13						-0.006716415	0.02349223	0.0333153	
57.330	1.802864	53.33469	0	13						-0.006712927	0.02348922	0.03329653	
57.342	1.815375	53.34721	0	13						-0.00671557	0.02348722	0.0332751	
57.358	1.831428	53.36326	0	13						-0.006714159	0.02347264	0.03324497	
57.367	1.84026	53.37209	0	13						-0.006666846	0.02342598	0.03317862	
57.374	1.847835	53.37967	0	13						-0.006597705	0.02336165	0.03313231	
57.385	1.858704	53.39053	0	13						-0.006544624	0.02326362	0.03307139	
57.397	1.869894	53.40172	0	13						-0.006420776	0.02314887	0.03300704	
57.407	1.879947	53.41178	0	13						-0.006317951	0.02304428	0.03293467	
57.419	1.891256	53.42308	0	13						-0.006200392	0.02296198	0.03291851	
57.448	1.921215	53.45304	0	13						-0.006097909	0.02284822	0.03286135	
57.459	1.931645	53.46347	0	13						-0.006013144	0.02270278	0.032927	
57.469	1.942115	53.47395	0	13						-0.005875892	0.02257822	0.032896	
57.474	1.946863	53.47869	0	13						-0.005625945	0.02230532	0.0328144	
57.484	1.956927	53.48875	0	13						-0.005515777	0.02215508	0.03276692	
57.495	1.96795	53.49978	0	13						-0.005304004	0.02204413	0.03270211	
57.509	1.982027	53.51385	0	13						-0.005204572	0.02191225	0.03270388	
57.520	1.993005	53.52483	0	13						-0.005009245	0.02178073	0.0326856	
57.525	1.998381	53.53021	0	13						-0.004874508	0.02165017	0.03267885	
57.537	2.010352	53.54218	0	13						-0.004728627	0.02148239	0.0326515	
57.548	2.020807	53.55264	0	13						-0.004568495	0.02140763	0.03260957	
57.559	2.031835	53.56366	0	13						-0.004432295	0.02130825	0.03263336	
57.571	2.043959	53.57579	0	13						-0.004455987	0.02136447	0.03269404	
57.580	2.052902	53.58473	0	13						-0.004312406	0.0212503	0.03270578	
57.591	2.063799	53.59563	0	13						-0.00420089	0.02115054	0.03270727	
57.601	2.073961	53.60579	0	13						-0.004043639	0.02109976	0.03269496	
57.613	2.085336	53.61716	0	13						-0.003933866	0.02096175	0.0327529	
57.624	2.096898	53.62873	0	13						-0.003825768	0.02090604	0.03277529	
57.633	2.106548	53.63838	0	13						-0.003678631	0.02081067	0.03282454	
57.646	2.117819	53.64965	0	13						-0.00352877	0.02071618	0.03287936	
57.655	2.128646	53.66048	0	13						-0.003397311	0.02067779	0.03292855	
57.670	2.143607	53.67543	0	13						-0.003328852	0.02064098	0.03303738	
57.681	2.154439	53.68627	0	13						-0.003178153	0.02058728	0.03312683	
57.690	2.163765	53.69559	0	13						-0.003103961	0.02054583	0.03320639	
57.698	2.171158	53.70299	0	13						-0.003068715	0.02054886	0.03325865	
57.710	2.182705	53.71453	0	13						-0.003034811	0.02055714	0.03331135	
57.721	2.193977	53.72581	0	13						-0.002936788	0.02052832	0.03339336	
57.748	2.220659	53.75249	0	13						-0.002764102	0.02050861	0.03343604	
57.757	2.229446	53.76128	0	13						-0.002553694	0.02054143	0.03362545	
57.763	2.23653	53.76836	0	13						-0.002380881	0.02056607	0.0336942	
57.776	2.247683	53.77951	0	13						-0.002335109	0.02059034	0.03371151	
57.787	2.259284	53.79111	0	13						-0.002276141	0.02060311	0.03377232	
57.797	2.27004	53.80187	0	13						-0.002167935	0.02066617	0.0338366	
57.809	2.281682	53.81351	0	13						-0.002033894	0.02070034	0.03390175	
57.824	2.297743	53.82957	0	13						-0.001916412	0.02073122	0.03396767	
57.831	2.304227	53.83606	0	13						-0.001745529	0.02081077	0.03401967	
57.843	2.31618	53.84801	0	13						-0.00167958	0.02085638	0.03406491	
57.853	2.325648	53.85748	0	13						-0.001543414	0.02090227	0.0341015	
57.864	2.336617	53.86845	0	13						-0.001441783	0.02091064	0.03413244	
57.875	2.347761	53.87959	0	13						-0.001265738	0.0209396	0.03417696	
57.887	2.359303	53.89113	0	13						-0.001156519	0.02095457	0.0342149	
57.897	2.369743	53.90157	0	13						-0.001058213	0.0210277	0.03425713	
57.908	2.381453	53.91328	0	13						-0.0009304583	0.02104186	0.03431732	
57.921	2.393849	53.92568	0	13						-0.0007161796	0.02107319	0.034357	
57.930	2.403155	53.93499	0	13						-0.0006211214	0.02111397	0.03441261	
57.942	2.414791	53.94662	0	13						-0.0004522651	0.02119622	0.03443393	
57.954	2.426669	53.9585	0	13						-0.00026251	0.02122196	0.03450279	
57.964	2.436829	53.96866	0	13						-0.0001227409	0.0212359	0.03461581	
57.978	2.451783	53.98361	0	13						5.139038E-05	0.02128042	0.03471414	
57.989	2.462459	53.99429	0	13						0.0001979694	0.02125336	0.03483131	
57.999	2.470523	54.00235	0	13						0.0003877878	0.02129851	0.03489429	
58.008	2.48154	54.01337	0	13						0.0005354062	0.02131814	0.03498369	
58.019	2.492718	54.02455	0	13						0.0006579123	0.02132723	0.03505813	
58.042	2.514959	54.04679	0	13						0.0007350743	0.02137146	0.03510233	
58.054	2.526782	54.05861	0	13						0.0005855374	0.02142939	0.03511379	
58.065	2.538166	54.07	0	13						0.0007370226	0.02151594	0.0350865	
58.076	2.549166	54.08099	0	13						0.0006193668	0.02151844	0.03509378	
58.087	2.559652	54.09148	0	13						0.0004570298	0.02151719	0.0350787	
58.099	2.572039	54.10387	0	13						0.0002721734	0.02152365	0.03506216	
58.110	2.582367	54.1142	0	13						0.0001322851	0.0215096	0.03503614	
58.120	2.593373	54.1252	0	13						7.562339E-07	0.02149126	0.03499183	
58.136	2.608861	54.14069	0	13						-0.0002665594	0.02146256	0.03482237	
58.146	2.618868	54.1507	0	13						-0.000556998	0.02143961	0.03478632	
58.155	2.627838	54.15967	0	13						-0.0007377788	0.02142859	0.03477134	
58.163	2.636669	54.1685	0	13						-0.0009901412	0.02142083	0.03474696	
58.177	2.648929	54.18076	0	13						-0.001173484	0.02140096	0.0346994	
58.186	2.658979	54.19081	0	13						-0.001426555	0.02138197	0.03466912	
58.197	2.670104	54.20193	0	13						-0.001621339	0.02134	0.03468476	
58.210	2.682838	54.21467	0	13						-0.001828735	0.02131596	0.03468158	
58.220	2.693054	54.22488	0	13						-0.002046532	0.0213304	0.03466023	
58.231	2.703645	54.23547	0	13						-0.002241771	0.02128798	0.03468471	
58.243	2.715765	54.24759	0	13						-0.002462346	0.02125475	0.03467444	
58.254	2.726652	54.25848	0	13						-0.002620202	0.02124607	0.03464088	
58.264	2.736932	54.26876	0	13						-0.002698339	0.02117327	0.03464169	
58.276	2.748554	54.28038	0	13						-0.002783592	0.02117072	0.03459703	
58.293	2.766071	54.2979	0	13						-0.002819047	0.02114932	0.03457753	
58.305	2.778187	54.31002	0	13						-0.002768115	0.02111065	0.03448274	
58.310	2.783411	54.31524	0	13						-0.002575602	0.02112789	0.03437449	
58.319	2.791971	54.3238	0	13						-0.002379852	0.02117036	0.03427964	
58.329	2.802615	54.33445	0	13						-0.002018217	0.02126867	0.0341388	
58.356	2.829483	54.36131	0	13						-0.001583566	0.02140062	0.03397765	
58.365	2.837811	54.36964	0	13						-0.0007002018	0.02158562	0.03369375	
58.374	2.847167	54.379	0	13						0.0007169358	0.02188737	0.03323448	
58.385	2.857791	54.38962	0	13						0.001630894	0.02205726	0.03294298	
58.396	2.868818	54.40065	0	13						0.002676164	0.02213006	0.032672	
58.406	2.879605	54.41143	0	13						0.003845693	0.02226485	0.03231196	
58.419	2.891918	54.42375	0	13						0.005063887	0.02240257	0.03191736	
58.429	2.9017	54.43353	0	13						0.006390397	0.02251686	0.03147189	
58.444	2.916443	54.44827	0	13						0.007756487	0.02258924	0.03105108	
58.453	2.925988	54.45782	0	13						0.009148152	0.02270107	0.03052665	
58.461	2.934237	54.46606	0	13						0.0104828	0.02277142	0.03006686	
58.472	2.945353	54.47718	0	13						0.01198983	0.02285024	0.02954815	
58.484	2.95649	54.48832	0	13						0.01350405	0.02292392	0.0289649	
58.493	2.965766	54.49759	0	13						0.01501766	0.02300364	0.02836909	
58.503	2.976409	54.50824	0	13						0.01506082	0.02301257	0.02824997	
58.515	2.988157	54.51999	0	13						0.01670353	0.02307239	0.02757884	
58.524	2.997607	54.52943	0	13						0.0183962	0.02316418	0.02681979	
58.535	3.007969	54.5398	0	13						0.02022773	0.02325595	0.02596503	
58.547	3.020705	54.55253	0	13						0.02216697	0.02337323	0.02504317	
58.558	3.030728	54.56256	0	13						0.02416709	0.02346173	0.0240235	
58.567	3.040373	54.5722	0	13						0.02621853	0.02351925	0.02292877	
58.581	3.053447	54.58527	0	13						0.02835978	0.02356637	0.02174556	
58.594	3.067166	54.599	0	13						0.03065875	0.02356916	0.02031453	
58.604	3.076951	54.60878	0	13						0.03293196	0.02363138	0.01877978	
58.615	3.087121	54.61895	0	13						0.03521563	0.02369649	0.01722552	
58.646	3.118584	54.65041	0	13						0.03748407	0.02363553	0.01552803	
58.655	3.128123	54.65995	0	13						0.03962627	0.02363509	0.01345261	
58.665	3.138249	54.67008	0	13						0.04635759	0.02358734	0.007813348	
58.678	3.151303	54.68313	0	13						0.0483576	0.02346414	0.005858936	
58.687	3.160466	54.6923	0	13						0.05028183	0.0234567	0.003682777	
58.698	3.171287	54.70312	0	13						0.05221377	0.02341094	0.00164108	
58.710	3.183246	54.71508	0	13						0.05388289	0.0233476	-0.0004512668	
58.721	3.19405	54.72588	0	13						0.05548886	0.02323542	-0.002530137	
58.731	3.2047	54.73653	0	13						0.05699047	0.02316243	-0.004458297	
58.748	3.220653	54.75248	0	13						0.05837042	0.02302327	-0.006293172	
58.758	3.231452	54.76328	0	13						0.05956211	0.02291032	-0.008109901	
