Time	keytime	time-time	keypress	target id	target_lon	target_lat	target_x	target_y	target_z	hmd_rx	hmd_ry	hmd_rz	
373.312	0.01840154	369.1378	0	19						-0.008080963	-0.007359309	0.007746137	
373.336	0.04275192	369.1622	0	19						-0.008064121	-0.007346337	0.007730029	
373.358	0.06528896	369.1847	0	19						-0.008034505	-0.007326101	0.007696245	
373.377	0.08445179	369.2039	0	19						-0.008016571	-0.007308917	0.007657496	
373.401	0.1082933	369.2277	0	19						-0.007998034	-0.007299636	0.007627522	
373.423	0.1299008	369.2493	0	19						-0.007957604	-0.007286309	0.00758183	
373.449	0.1555264	369.2749	0	19						-0.007935878	-0.007271356	0.007546877	
373.470	0.1766416	369.2961	0	19						-0.007905283	-0.007256406	0.007505234	
373.488	0.1952759	369.3147	0	19						-0.007881332	-0.00725254	0.007480144	
373.511	0.218319	369.3377	0	19						-0.007866792	-0.007248059	0.007456349	
373.534	0.2409374	369.3604	0	19						-0.007836903	-0.007262813	0.007446595	
373.558	0.2645498	369.3839	0	19						-0.007805555	-0.007276347	0.007442195	
373.578	0.2856484	369.4051	0	19						-0.007767648	-0.007302369	0.007438492	
373.600	0.3066135	369.426	0	19						-0.007738378	-0.007328002	0.007430811	
373.625	0.3319626	369.4514	0	19						-0.007690287	-0.0073647	0.007424602	
373.664	0.3529241	369.4723	0	19						-0.007615429	-0.00740629	0.007434141	
373.684	0.3904794	369.5099	0	19						-0.0075704	-0.007407368	0.007446333	
373.701	0.4083642	369.5278	0	19						-0.007506412	-0.007420741	0.007474143	
373.720	0.4265943	369.546	0	19						-0.007488448	-0.007422719	0.007479541	
373.743	0.4498361	369.5692	0	19						-0.007480867	-0.007416852	0.007473976	
373.760	0.4674337	369.5869	0	19						-0.007483832	-0.007421552	0.007470164	
373.780	0.4875917	369.607	0	19						-0.007483018	-0.007432744	0.007455867	
373.803	0.5104175	369.6298	0	19						-0.007511381	-0.007434912	0.00745088	
373.823	0.5305407	369.6499	0	19						-0.00752598	-0.007447292	0.007449302	
373.848	0.5538102	369.6732	0	19						-0.007524618	-0.007458594	0.007457075	
373.870	0.5767715	369.6962	0	19						-0.007537872	-0.007478199	0.007481033	
373.890	0.5972495	369.7166	0	19						-0.007525578	-0.007496046	0.007491011	
373.915	0.6210567	369.7404	0	19						-0.00750043	-0.007514864	0.007516659	
373.936	0.6428538	369.7623	0	19						-0.00746737	-0.007523738	0.0075383	
373.956	0.6632448	369.7827	0	19						-0.007415608	-0.007526207	0.007564181	
373.981	0.6882309	369.8076	0	19						-0.00734897	-0.00751826	0.007588206	
374.002	0.7086508	369.8281	0	19						-0.007277372	-0.007511974	0.007603746	
374.022	0.7295017	369.8489	0	19						-0.007236633	-0.007519416	0.007605831	
374.048	0.7547848	369.8742	0	19						-0.007191309	-0.007533599	0.007603242	
374.070	0.7764491	369.8958	0	19						-0.007143807	-0.007542061	0.007597812	
374.092	0.7991316	369.9185	0	19						-0.007110532	-0.007552838	0.007594272	
374.115	0.8216714	369.9411	0	19						-0.007081535	-0.007557969	0.007578403	
374.135	0.8419518	369.9614	0	19						-0.00706143	-0.007559283	0.00755077	
374.159	0.8659439	369.9854	0	19						-0.007049471	-0.007564076	0.007529842	
374.183	0.8893844	370.0088	0	19						-0.00703304	-0.007542641	0.007493212	
374.205	0.9116524	370.0311	0	19						-0.007015311	-0.007522919	0.007481112	
374.225	0.9320965	370.0515	0	19						-0.006999805	-0.007489149	0.007474476	
374.248	0.9545431	370.0739	0	19						-0.006977975	-0.007461941	0.007477532	
374.276	0.9817019	370.1011	0	19						-0.006959975	-0.007425505	0.007483746	
374.296	1.00348	370.1229	0	19						-0.006974938	-0.007375235	0.007495584	
374.314	1.020131	370.1395	0	19						-0.006989243	-0.00733743	0.007506253	
374.335	1.04166	370.1611	0	19						-0.006997656	-0.007315317	0.007532084	
374.350	1.057913	370.1773	0	19						-0.007019089	-0.007274746	0.007571891	
374.367	1.073476	370.1929	0	19						-0.007033137	-0.007249915	0.007596768	
374.385	1.092334	370.2117	0	19						-0.007040072	-0.007233897	0.007622095	
374.404	1.110896	370.2303	0	19						-0.007045432	-0.007239755	0.00767463	
374.420	1.1275	370.2469	0	19						-0.007055606	-0.007232624	0.007719979	
374.439	1.145174	370.2646	0	19						-0.007052451	-0.007224857	0.00777512	
374.456	1.162745	370.2822	0	19						-0.007050883	-0.007236274	0.007822746	
374.475	1.181897	370.3013	0	19						-0.00705756	-0.007233198	0.007869052	
374.491	1.198131	370.3175	0	19						-0.007064437	-0.007224355	0.007904765	
374.512	1.218829	370.3382	0	19						-0.007077266	-0.007219402	0.007935046	
374.533	1.239856	370.3593	0	19						-0.0070825	-0.007226995	0.007965826	
374.555	1.2614	370.3808	0	19						-0.007086049	-0.007249649	0.007998358	
374.578	1.285318	370.4047	0	19						-0.007097833	-0.007281066	0.008005626	
374.601	1.3081	370.4275	0	19						-0.00710186	-0.007317227	0.008001631	
374.625	1.331608	370.451	0	19						-0.00710579	-0.00733551	0.007989169	
374.647	1.35388	370.4733	0	19						-0.007094522	-0.007354375	0.007976015	
374.668	1.375232	370.4946	0	19						-0.007078425	-0.007362605	0.007946527	
374.690	1.397335	370.5168	0	19						-0.007061288	-0.007359219	0.007910545	
374.713	1.419949	370.5394	0	19						-0.007028575	-0.007357347	0.007847263	
374.738	1.443679	370.5631	0	19						-0.00699488	-0.007358288	0.007808206	
374.757	1.464143	370.5836	0	19						-0.006943766	-0.0073377	0.007765182	
374.779	1.486138	370.6055	0	19						-0.006896447	-0.007326472	0.007740579	
374.803	1.509955	370.6294	0	19						-0.006831718	-0.007301196	0.007722303	
374.853	1.559716	370.6791	0	19						-0.006765696	-0.007257749	0.007697072	
374.869	1.576065	370.6955	0	19						-0.00665855	-0.007216563	0.007669987	
374.894	1.601274	370.7207	0	19						-0.00662211	-0.007207441	0.007661033	
374.916	1.62339	370.7428	0	19						-0.006566487	-0.007204838	0.007645287	
374.937	1.64435	370.7638	0	19						-0.006523295	-0.007195096	0.007622201	
374.960	1.6664	370.7858	0	19						-0.006487207	-0.007196391	0.00759937	
374.982	1.688679	370.8081	0	19						-0.006442431	-0.007186909	0.00757625	
375.000	1.706621	370.826	0	19						-0.006404128	-0.007166113	0.007542479	
375.025	1.730862	370.8503	0	19						-0.006364576	-0.00715598	0.007525876	
375.046	1.753515	370.8729	0	19						-0.006321386	-0.007135563	0.007505236	
375.066	1.773392	370.8928	0	19						-0.006278947	-0.007116292	0.007490787	
375.090	1.797022	370.9164	0	19						-0.00621929	-0.007104344	0.007483955	
375.113	1.820367	370.9398	0	19						-0.006162107	-0.007087422	0.007464838	
375.134	1.841034	370.9604	0	19						-0.006119623	-0.007045953	0.007414563	
375.158	1.864642	370.984	0	19						-0.006084506	-0.007017341	0.007386823	
375.181	1.887766	371.0072	0	19						-0.006058441	-0.006986751	0.007364156	
375.200	1.906652	371.0261	0	19						-0.006032955	-0.006964607	0.007352028	
375.226	1.932778	371.0522	0	19						-0.006009746	-0.006962692	0.007355165	
375.248	1.954935	371.0743	0	19						-0.00599474	-0.006940668	0.007339141	
375.266	1.973028	371.0924	0	19						-0.005988304	-0.00691526	0.007319831	
375.292	1.999171	371.1186	0	19						-0.006000333	-0.006898251	0.007304712	
375.316	2.022335	371.1418	0	19						-0.0060178	-0.006868075	0.007278234	
375.334	2.040363	371.1598	0	19						-0.00603377	-0.006846713	0.007244605	
375.359	2.066024	371.1854	0	19						-0.006042839	-0.006838311	0.007213528	
375.387	2.09363	371.213	0	19						-0.006054782	-0.006844738	0.00717298	
375.405	2.111559	371.231	0	19						-0.006046463	-0.006851224	0.007119236	
375.424	2.131216	371.2506	0	19						-0.006021142	-0.006862813	0.007064346	
375.449	2.156437	371.2758	0	19						-0.005978789	-0.00684463	0.006997718	
375.466	2.173633	371.293	0	19						-0.005872834	-0.006826763	0.006909854	
375.486	2.19325	371.3127	0	19						-0.005898159	-0.006826625	0.006863777	
375.504	2.210657	371.33	0	19						-0.005741515	-0.006816706	0.006786292	
375.521	2.228376	371.3478	0	19						-0.005681429	-0.006815032	0.006724893	
375.540	2.246929	371.3663	0	19						-0.005600613	-0.006757451	0.006636215	
375.558	2.264414	371.3838	0	19						-0.00547808	-0.006737353	0.006557539	
375.580	2.286722	371.4061	0	19						-0.005435746	-0.006714064	0.006502172	
375.597	2.304168	371.4236	0	19						-0.005310955	-0.006723103	0.006441973	
375.617	2.324375	371.4438	0	19						-0.005248319	-0.006733967	0.006397501	
375.640	2.346044	371.4655	0	19						-0.00512946	-0.006738597	0.006360781	
375.660	2.367299	371.4867	0	19						-0.005012359	-0.00671594	0.006302503	
375.678	2.384949	371.5044	0	19						-0.004893929	-0.006709435	0.006277102	
375.698	2.404486	371.5239	0	19						-0.004797995	-0.006688165	0.006250024	
375.715	2.421865	371.5413	0	19						-0.004702799	-0.006672126	0.0062217	
375.731	2.438396	371.5578	0	19						-0.004622391	-0.006631219	0.006235222	
375.750	2.456826	371.5762	0	19						-0.004547734	-0.00663725	0.006213174	
375.776	2.482169	371.6016	0	19						-0.004468259	-0.006613674	0.006189137	
375.801	2.508419	371.6278	0	19						-0.004347216	-0.006595563	0.006206396	
375.823	2.530243	371.6497	0	19						-0.004250501	-0.00656533	0.006164658	
375.845	2.551725	371.6711	0	19						-0.00413954	-0.006555284	0.006153603	
375.867	2.573568	371.693	0	19						-0.00405972	-0.006530439	0.006121267	
375.890	2.596167	371.7156	0	19						-0.00390897	-0.00652877	0.006139405	
375.914	2.620688	371.7401	0	19						-0.00382194	-0.006514184	0.006149794	
375.939	2.645551	371.765	0	19						-0.003706311	-0.006488828	0.00616607	
375.956	2.662875	371.7823	0	19						-0.003611335	-0.006456937	0.006160955	
375.980	2.687254	371.8067	0	19						-0.003520746	-0.006438228	0.006183593	
376.021	2.727624	371.847	0	19						-0.003459994	-0.00636436	0.006170121	
376.038	2.743929	371.8633	0	19						-0.003430791	-0.006260598	0.006143097	
376.058	2.764396	371.8838	0	19						-0.003394835	-0.006173257	0.006165554	
376.074	2.781189	371.9006	0	19						-0.003345218	-0.006079428	0.006163999	
376.093	2.800312	371.9197	0	19						-0.003362485	-0.005987005	0.006174203	
376.118	2.824028	371.9434	0	19						-0.003359053	-0.00584032	0.006179944	
376.134	2.841245	371.9607	0	19						-0.00341145	-0.005697039	0.006138943	
376.159	2.865393	371.9848	0	19						-0.003487658	-0.005543461	0.006079801	
376.180	2.886111	372.0055	0	19						-0.003560942	-0.005345652	0.005968881	
376.203	2.909932	372.0293	0	19						-0.003702967	-0.005212343	0.005880639	
376.225	2.931647	372.0511	0	19						-0.00388625	-0.005052555	0.005725349	
376.248	2.955196	372.0746	0	19						-0.004017167	-0.004936171	0.005569171	
376.269	2.976494	372.0959	0	19						-0.004103098	-0.00484923	0.005385118	
376.290	2.997272	372.1167	0	19						-0.004215551	-0.00474926	0.005196385	
376.312	3.018772	372.1382	0	19						-0.004375331	-0.004741822	0.005065557	
376.335	3.041822	372.1612	0	19						-0.004368429	-0.00467176	0.004821572	
376.359	3.066122	372.1855	0	19						-0.00446543	-0.004601291	0.004619512	
376.379	3.085929	372.2053	0	19						-0.004443876	-0.004540266	0.004363466	
376.403	3.10991	372.2293	0	19						-0.004443839	-0.004481412	0.004167246	
376.424	3.13118	372.2506	0	19						-0.004431788	-0.004441745	0.003908253	
376.448	3.155568	372.275	0	19						-0.004370999	-0.004392545	0.003656133	
376.474	3.180757	372.3002	0	19						-0.004304003	-0.004368273	0.003432847	
376.493	3.199823	372.3192	0	19						-0.004256286	-0.004318311	0.00323569	
376.514	3.221231	372.3406	0	19						-0.00421792	-0.004323198	0.0031192	
376.535	3.242118	372.3615	0	19						-0.004172881	-0.004326251	0.002965523	
376.561	3.242118	372.3842	1	3	180	0	4.371139E-08	0	-0.5	-0.004119981	-0.004323271	0.002825158	
376.561	3.264763	372.3842	0	3						-0.004119981	-0.004323271	0.002825158	
376.582	3.288626	372.408	0	3						-0.00404834	-0.004322933	0.002708478	
376.602	3.308895	372.4283	0	3						-0.00396366	-0.00431885	0.002597611	
376.626	3.332822	372.4522	0	3						-0.003879839	-0.004309046	0.002508587	
376.646	3.353601	372.473	0	3						-0.00380357	-0.004315056	0.002444528	
376.663	3.36999	372.4894	0	3						-0.003701791	-0.004322054	0.002367388	
376.681	3.387185	372.5066	0	3						-0.00358962	-0.004332296	0.002294329	
376.702	3.408644	372.528	0	3						-0.003498659	-0.00436044	0.002251397	
376.723	3.429915	372.5493	0	3						-0.003364309	-0.004387854	0.002196402	
376.741	3.447812	372.5672	0	3						-0.003285802	-0.004433982	0.002192043	
376.762	3.468777	372.5882	0	3						-0.003171343	-0.004457333	0.002174472	
376.780	3.487121	372.6065	0	3						-0.003042277	-0.004506939	0.002182575	
376.802	3.509181	372.6286	0	3						-0.002946753	-0.004526061	0.002184354	
376.826	3.532042	372.6515	0	3						-0.00283521	-0.004566972	0.002198367	
376.844	3.550899	372.6703	0	3						-0.002697513	-0.004614539	0.002209573	
376.867	3.57404	372.6935	0	3						-0.002614908	-0.004629263	0.002226311	
376.892	3.598645	372.718	0	3						-0.0024993	-0.004650768	0.002250585	
376.915	3.62137	372.7408	0	3						-0.00237862	-0.004672476	0.002285054	
376.934	3.641629	372.761	0	3						-0.002266488	-0.004715303	0.00233295	
376.956	3.663797	372.7832	0	3						-0.002203096	-0.004746166	0.002369991	
376.987	3.693813	372.8132	0	3						-0.002126805	-0.004792725	0.002423638	
377.006	3.71277	372.8322	0	3						-0.002082174	-0.00478294	0.002474439	
377.028	3.735311	372.8547	0	3						-0.002034508	-0.004786384	0.002552385	
377.046	3.753155	372.8726	0	3						-0.002060689	-0.004708376	0.002619955	
377.067	3.773674	372.8931	0	3						-0.00206913	-0.004591716	0.002755758	
377.087	3.794429	372.9138	0	3						-0.002289999	-0.004337592	0.002954878	
377.110	3.816942	372.9363	0	3						-0.002693201	-0.004027416	0.003209983	
377.134	3.840448	372.9599	0	3						-0.003332011	-0.003726177	0.003500391	
377.158	3.864703	372.9841	0	3						-0.004289687	-0.003421469	0.003722887	
377.181	3.888374	373.0078	0	3						-0.005401858	-0.003284052	0.003858313	
377.220	3.925304	373.0447	0	3						-0.006783041	-0.003104081	0.003896978	
377.236	3.942991	373.0624	0	3						-0.00847723	-0.002867256	0.003813745	
377.256	3.962668	373.0821	0	3						-0.01005479	-0.002667837	0.003691277	
377.272	3.979314	373.0987	0	3						-0.01169333	-0.002454207	0.003468875	
377.291	3.998333	373.1177	0	3						-0.01340233	-0.002253596	0.003182426	
377.311	4.018627	373.138	0	3						-0.01518389	-0.002010369	0.002770239	
377.331	4.037511	373.1569	0	3						-0.01701821	-0.00180202	0.002258715	
377.356	4.062258	373.1817	0	3						-0.01897714	-0.001572072	0.001638199	
377.378	4.085542	373.205	0	3						-0.02097044	-0.001403787	0.0007690731	
377.397	4.103997	373.2234	0	3						-0.02294133	-0.001263923	-7.381849E-05	
377.422	4.129062	373.2485	0	3						-0.02478699	-0.00115976	-0.001010873	
377.446	4.152749	373.2722	0	3						-0.02681083	-0.0009709971	-0.00214332	
377.466	4.173355	373.2928	0	3						-0.02872237	-0.0009126284	-0.003209305	
377.492	4.199168	373.3186	0	3						-0.03045756	-0.0007954156	-0.004388804	
377.511	4.217588	373.337	0	3						-0.03218376	-0.0007777652	-0.005689184	
377.534	4.240664	373.3601	0	3						-0.03375865	-0.0008758511	-0.007012595	
377.559	4.264339	373.3838	0	3						-0.0351219	-0.0009885214	-0.008296303	
377.579	4.286215	373.4056	0	3						-0.03626201	-0.001102834	-0.009465812	
377.602	4.308641	373.428	0	3						-0.03731441	-0.001228202	-0.01046523	
377.624	4.330907	373.4503	0	3						-0.0381705	-0.001418245	-0.01141274	
377.645	4.352318	373.4717	0	3						-0.03896853	-0.001678245	-0.0123914	
377.669	4.375216	373.4946	0	3						-0.03978429	-0.002040142	-0.01325062	
377.694	4.400261	373.5197	0	3						-0.04058973	-0.002387888	-0.0142267	
377.713	4.419672	373.5391	0	3						-0.04130209	-0.002799634	-0.01522488	
377.737	4.443927	373.5633	0	3						-0.04200676	-0.003300104	-0.01626586	
377.759	4.465305	373.5847	0	3						-0.04272771	-0.003872061	-0.01725785	
377.779	4.486571	373.606	0	3						-0.04354576	-0.004415137	-0.01815727	
377.803	4.51053	373.6299	0	3						-0.04429502	-0.005001548	-0.0190568	
377.826	4.532814	373.6522	0	3						-0.04518999	-0.005632181	-0.01993441	
377.845	4.551405	373.6708	0	3						-0.04578781	-0.006423203	-0.02097118	
377.871	4.577405	373.6968	0	3						-0.04623566	-0.007283816	-0.02203719	
377.892	4.59921	373.7186	0	3						-0.04645534	-0.008188207	-0.02318504	
377.916	4.622173	373.7416	0	3						-0.04664984	-0.009225721	-0.02439027	
377.936	4.643427	373.7628	0	3						-0.04662507	-0.01032352	-0.02554538	
377.959	4.66559	373.785	0	3						-0.04658287	-0.01136632	-0.02671103	
377.981	4.688572	373.808	0	3						-0.04646155	-0.01248999	-0.02781972	
378.003	4.710466	373.8299	0	3						-0.04599407	-0.01379647	-0.02895408	
378.032	4.739116	373.8585	0	3						-0.04553407	-0.01519825	-0.03013235	
378.049	4.75621	373.8756	0	3						-0.04508338	-0.01644278	-0.03119185	
378.070	4.776779	373.8962	0	3						-0.04427468	-0.01761381	-0.03238411	
378.091	4.797945	373.9174	0	3						-0.04322191	-0.01868735	-0.03364804	
378.114	4.821238	373.9406	0	3						-0.04219729	-0.01968246	-0.0349893	
378.136	4.842568	373.962	0	3						-0.04110702	-0.02078255	-0.03628588	
378.159	4.86587	373.9853	0	3						-0.0400526	-0.02192158	-0.03748706	
378.182	4.888804	374.0082	0	3						-0.03889079	-0.02293175	-0.03868279	
378.206	4.912856	374.0323	0	3						-0.03800349	-0.02392158	-0.03973249	
378.226	4.932824	374.0522	0	3						-0.03700022	-0.02492239	-0.04076977	
378.249	4.955462	374.0749	0	3						-0.03577701	-0.025936	-0.04194896	
378.272	4.978786	374.0982	0	3						-0.03484636	-0.02689447	-0.04310075	
378.295	5.001754	374.1212	0	3						-0.03373889	-0.0276546	-0.04425731	
378.317	5.02395	374.1433	0	3						-0.0326473	-0.02850058	-0.04538947	
378.338	5.045147	374.1646	0	3						-0.031682	-0.02942175	-0.0465134	
378.359	5.065759	374.1852	0	3						-0.03086647	-0.03034151	-0.04754589	
378.384	5.090822	374.2102	0	3						-0.02994141	-0.0313584	-0.04856357	
378.407	5.114018	374.2334	0	3						-0.029528	-0.03255573	-0.04954134	
378.444	5.150789	374.2702	0	3						-0.02875146	-0.03380319	-0.05057821	
378.461	5.168185	374.2876	0	3						-0.02866058	-0.0353277	-0.05162444	
378.479	5.186826	374.3062	0	3						-0.02765654	-0.03679451	-0.05274761	
378.496	5.20332	374.3227	0	3						-0.02672687	-0.03824586	-0.05387148	
378.518	5.224823	374.3442	0	3						-0.02382645	-0.04073964	-0.05610253	
378.541	5.247342	374.3668	0	3						-0.02495803	-0.04062494	-0.05614892	
378.566	5.272655	374.3921	0	3						-0.02417891	-0.04153184	-0.05715041	
378.585	5.292236	374.4117	0	3						-0.02372521	-0.04225802	-0.05816444	
378.605	5.311748	374.4312	0	3						-0.02297781	-0.04266278	-0.05910937	
378.626	5.33366	374.4531	0	3						-0.02212399	-0.04277036	-0.05991622	
378.649	5.35566	374.4751	0	3						-0.02152745	-0.04278116	-0.06072334	
378.670	5.377617	374.497	0	3						-0.02063537	-0.04250814	-0.06151139	
378.692	5.398197	374.5176	0	3						-0.01977131	-0.04197739	-0.06226135	
378.716	5.422174	374.5416	0	3						-0.01878194	-0.04122532	-0.06295583	
378.737	5.443336	374.5627	0	3						-0.01794352	-0.04046464	-0.06356958	
378.759	5.46541	374.5848	0	3						-0.01685183	-0.03959729	-0.06408649	
378.781	5.487874	374.6073	0	3						-0.01589251	-0.03876511	-0.06459676	
378.805	5.511869	374.6313	0	3						-0.01489235	-0.03782255	-0.06504853	
378.823	5.53029	374.6497	0	3						-0.01390199	-0.0368521	-0.06545586	
378.848	5.554392	374.6738	0	3						-0.0128646	-0.03580503	-0.0658426	
378.872	5.578835	374.6982	0	3						-0.01180641	-0.03469316	-0.06612194	
378.892	5.599283	374.7187	0	3						-0.01088491	-0.03352822	-0.066332	
378.917	5.623586	374.743	0	3						-0.009968294	-0.03229039	-0.06652988	
378.938	5.645632	374.765	0	3						-0.009481912	-0.03111032	-0.06679618	
378.957	5.664069	374.7835	0	3						-0.00879376	-0.02982668	-0.06695835	
378.983	5.690059	374.8095	0	3						-0.008246002	-0.0286201	-0.06710628	
379.004	5.71073	374.8301	0	3						-0.007709083	-0.02756785	-0.06732922	
379.026	5.732212	374.8516	0	3						-0.0073882	-0.02666267	-0.06760208	
379.051	5.75767	374.8771	0	3						-0.006871469	-0.02573029	-0.067926	
379.072	5.778282	374.8977	0	3						-0.006771893	-0.02494029	-0.0683555	
379.097	5.804271	374.9237	0	3						-0.006387185	-0.02399001	-0.06874914	
379.118	5.824776	374.9442	0	3						-0.006299588	-0.02327293	-0.06923039	
379.138	5.845328	374.9647	0	3						-0.005947258	-0.02250029	-0.06969371	
379.157	5.863833	374.9832	0	3						-0.005652792	-0.02182999	-0.07015537	
