Time	keytime	time-time	keypress	target id	target_lon	target_lat	target_x	target_y	target_z	hmd_rx	hmd_ry	hmd_rz	
210.829	20.62234	206.744	0	1						0.08324003	0.01361522	0.0111857	
210.847	20.64183	206.7635	0	1						0.08279942	0.01368875	0.01127347	
210.870	20.66459	206.7863	0	1						0.08266859	0.01351261	0.01143498	
210.905	20.69938	206.8211	0	1						0.0821699	0.01340952	0.01144828	
210.924	20.71905	206.8407	0	1						0.0819402	0.01320358	0.01148342	
210.943	20.73792	206.8596	0	1						0.08185773	0.01315524	0.01151066	
210.969	20.76348	206.8852	0	1						0.08198132	0.01311217	0.01149464	
210.989	20.78275	206.9044	0	1						0.08188182	0.01304931	0.01155761	
211.007	20.80128	206.923	0	1						0.08200729	0.01303588	0.01157047	
211.024	20.81813	206.9398	0	1						0.08191971	0.01307337	0.01158552	
211.040	20.83482	206.9565	0	1						0.08201385	0.01320092	0.01159275	
211.058	20.85318	206.9749	0	1						0.0819523	0.01316304	0.01152646	
211.082	20.87681	206.9985	0	1						0.08200783	0.01321855	0.01154016	
211.104	20.89841	207.0201	0	1						0.08217159	0.01323859	0.01146863	
211.128	20.92235	207.044	0	1						0.08214694	0.01315528	0.01147043	
211.147	20.94205	207.0637	0	1						0.08226087	0.01304382	0.01141109	
211.164	20.95853	207.0802	0	1						0.082347	0.01284895	0.01134017	
211.182	20.977	207.0987	0	1						0.08239768	0.01276274	0.01132589	
211.205	20.99942	207.1211	0	1						0.08247012	0.01263357	0.01125893	
211.225	21.02014	207.1418	0	1						0.08242476	0.0126029	0.01126165	
211.249	21.04462	207.1663	0	1						0.08239461	0.0125745	0.01131636	
211.270	21.06452	207.1862	0	1						0.08228195	0.01264316	0.01130203	
211.299	21.0937	207.2154	0	1						0.08229934	0.01275282	0.01129559	
211.315	21.11037	207.2321	0	1						0.08233362	0.0128069	0.01121943	
211.332	21.12732	207.249	0	1						0.08223885	0.01287957	0.0111989	
211.349	21.14349	207.2652	0	1						0.08228058	0.01297595	0.01122559	
211.366	21.16073	207.2824	0	1						0.08230814	0.01297031	0.01114267	
211.381	21.17635	207.298	0	1						0.08236194	0.01294813	0.011044	
211.399	21.19337	207.315	0	1						0.08218822	0.01293285	0.01105445	
211.415	21.21006	207.3317	0	1						0.08209528	0.01291275	0.01096038	
211.434	21.22875	207.3504	0	1						0.0821043	0.01286264	0.01090433	
211.473	21.26768	207.3894	0	1						0.08202764	0.01284742	0.01085791	
211.492	21.28645	207.4081	0	1						0.08198051	0.01282214	0.01074055	
211.507	21.30227	207.424	0	1						0.08200075	0.01286638	0.01070641	
211.524	21.31838	207.4401	0	1						0.08201271	0.01296381	0.01064052	
211.541	21.33641	207.4581	0	1						0.08203517	0.01298733	0.01056635	
211.562	21.35733	207.479	0	1						0.08211569	0.01311633	0.0105332	
211.585	21.37963	207.5013	0	1						0.08221101	0.0131437	0.01039198	
211.611	21.40578	207.5275	0	1						0.08224355	0.01320832	0.01036566	
211.627	21.4227	207.5444	0	1						0.08231843	0.013203	0.01030096	
211.647	21.44144	207.5631	0	1						0.08232746	0.01320685	0.01028612	
211.669	21.46416	207.5858	0	1						0.0823235	0.01322128	0.01027303	
211.693	21.48728	207.609	0	1						0.08234677	0.01318015	0.01021846	
211.715	21.50948	207.6312	0	1						0.08234852	0.01316794	0.01024988	
211.734	21.52966	207.6514	0	1						0.08232977	0.01316559	0.01028241	
211.759	21.55386	207.6756	0	1						0.08239335	0.0131157	0.01029981	
211.785	21.57948	207.7012	0	1						0.08219475	0.01314391	0.0101362	
211.801	21.59581	207.7175	0	1						0.08201337	0.01322345	0.01022524	
211.822	21.61665	207.7383	0	1						0.08206633	0.01326835	0.01019608	
211.848	21.64269	207.7644	0	1						0.08186988	0.0133523	0.01015125	
211.869	21.66405	207.7857	0	1						0.08184149	0.01343785	0.0101085	
211.893	21.68795	207.8096	0	1						0.08192168	0.01347389	0.01001114	
211.916	21.71058	207.8323	0	1						0.08184996	0.0135281	0.00991664	
211.936	21.73133	207.853	0	1						0.08194105	0.01346475	0.009772019	
211.956	21.75118	207.8729	0	1						0.08184017	0.01355334	0.009741242	
211.978	21.77285	207.8945	0	1						0.08184414	0.01359222	0.009613061	
212.001	21.79558	207.9173	0	1						0.08181833	0.01357352	0.009594634	
212.024	21.81907	207.9408	0	1						0.08170709	0.01366415	0.009566935	
212.047	21.84227	207.9639	0	1						0.08162776	0.01359454	0.009533928	
212.088	21.88263	208.0043	0	1						0.08148383	0.01371531	0.009611307	
212.104	21.89923	208.0209	0	1						0.0811075	0.01368371	0.009569331	
212.122	21.9173	208.039	0	1						0.08095184	0.01364577	0.009611486	
212.139	21.93355	208.0552	0	1						0.08067477	0.01360207	0.009625212	
212.158	21.95262	208.0743	0	1						0.08050765	0.01356932	0.009620696	
212.182	21.97633	208.098	0	1						0.08039889	0.01359887	0.009672624	
212.204	21.99888	208.1206	0	1						0.08029952	0.0135894	0.009652073	
212.230	22.02497	208.1467	0	1						0.0803216	0.01361485	0.00959426	
212.248	22.04321	208.1649	0	1						0.0803507	0.01359813	0.009564353	
212.269	22.06388	208.1856	0	1						0.08026733	0.01358203	0.009626217	
212.290	22.08509	208.2068	0	1						0.08026608	0.01362935	0.00956435	
212.314	22.10862	208.2303	0	1						0.08014498	0.013609	0.009593281	
212.333	22.12815	208.2498	0	1						0.08008467	0.01368459	0.00967245	
212.352	22.14674	208.2684	0	1						0.08000046	0.01360523	0.009750514	
212.366	22.16121	208.2829	0	1						0.07994352	0.01356258	0.009642107	
212.393	22.18783	208.3095	0	1						0.07984879	0.01363384	0.0097303	
212.411	22.20637	208.328	0	1						0.07959155	0.01360007	0.009903693	
212.427	22.22195	208.3436	0	1						0.07949527	0.0137321	0.01006276	
212.444	22.23887	208.3605	0	1						0.07936621	0.01366399	0.01023266	
212.459	22.25449	208.3762	0	1						0.0792731	0.01361191	0.01033982	
212.478	22.27275	208.3944	0	1						0.07923426	0.01361519	0.01049389	
212.494	22.28839	208.4101	0	1						0.07927925	0.01366044	0.01068525	
212.510	22.30532	208.427	0	1						0.07956657	0.01364938	0.01096415	
212.528	22.32269	208.4444	0	1						0.07955958	0.01371341	0.01108058	
212.554	22.34832	208.47	0	1						0.07964636	0.01379241	0.01116384	
212.569	22.36447	208.4861	0	1						0.07960979	0.01380476	0.0112365	
212.588	22.38328	208.505	0	1						0.07972006	0.01408939	0.01125664	
212.623	22.40419	208.5259	0	1						0.0795529	0.0140302	0.01120903	
212.644	22.40419	208.5573	1	3	120	0	-0.2598076	0	-0.15	-0.005398057	-0.0113641	0.01619664	
212.644	22.43561	208.5573	0	3						0.07950506	0.01420811	0.01111852	
212.663	22.45714	208.5788	0	3						0.07951024	0.01418178	0.01094129	
212.684	22.47854	208.6002	0	3						0.07938113	0.01401309	0.01089505	
212.711	22.50593	208.6276	0	3						0.07938573	0.01378201	0.01079202	
212.734	22.52935	208.651	0	3						0.0794403	0.01329591	0.01075956	
212.758	22.55215	208.6738	0	3						0.07971328	0.01286071	0.01064869	
212.779	22.57389	208.6956	0	3						0.07972553	0.01258537	0.0107442	
212.803	22.59729	208.719	0	3						0.0800119	0.01235024	0.01094957	
212.823	22.61826	208.7399	0	3						0.08009428	0.01241823	0.01105034	
212.847	22.64142	208.7631	0	3						0.0802381	0.01251817	0.01127767	
212.870	22.66446	208.7861	0	3						0.08055159	0.01281596	0.01151508	
212.891	22.68596	208.8076	0	3						0.08072553	0.01293957	0.01153071	
212.913	22.70742	208.8291	0	3						0.08063634	0.01322707	0.01160881	
212.934	22.72917	208.8508	0	3						0.08026868	0.0136842	0.01141212	
212.958	22.75296	208.8746	0	3						0.08015978	0.01384818	0.01137212	
212.979	22.77425	208.8959	0	3						0.08004092	0.01367966	0.01104423	
213.001	22.79645	208.9181	0	3						0.08013317	0.01228716	0.0106803	
213.026	22.82073	208.9424	0	3						0.08007821	0.008087333	0.01035572	
213.047	22.8416	208.9633	0	3						0.07945509	-0.0001024783	0.01009957	
213.068	22.86268	208.9844	0	3						0.07913574	-0.01319518	0.01008937	
213.090	22.88456	209.0062	0	3						0.07840531	-0.03018603	0.0104398	
213.112	22.9071	209.0288	0	3						0.07920145	-0.05043268	0.01107224	
213.134	22.9295	209.0512	0	3						0.07954404	-0.07225823	0.01265293	
213.159	22.95419	209.0759	0	3						0.07874524	-0.09587401	0.01395375	
213.185	22.97905	209.1007	0	3						0.07713483	-0.1200398	0.01566511	
213.203	22.99794	209.1196	0	3						0.07551403	-0.1422325	0.0168901	
213.234	23.02856	209.1502	0	3						0.07456431	-0.1634693	0.01784575	
213.251	23.04641	209.1681	0	3						0.07385644	-0.1830161	0.02000253	
213.266	23.06085	209.1825	0	3						0.07365624	-0.2023343	0.02128689	
213.286	23.08074	209.2024	0	3						0.07347566	-0.2211451	0.02235316	
213.310	23.10499	209.2267	0	3						0.07285172	-0.238325	0.02399568	
213.336	23.1313	209.253	0	3						0.07308922	-0.2549122	0.0249843	
213.360	23.15436	209.276	0	3						0.07328145	-0.2697862	0.02644932	
213.379	23.1731	209.2948	0	3						0.07363295	-0.2843917	0.02714141	
213.401	23.19612	209.3178	0	3						0.07369488	-0.2984271	0.02804766	
213.426	23.22056	209.3422	0	3						0.07322572	-0.3119273	0.02903503	
213.448	23.24284	209.3645	0	3						0.07328297	-0.325777	0.02939243	
213.470	23.26488	209.3866	0	3						0.07284562	-0.3392131	0.03075998	
213.494	23.28861	209.4103	0	3						0.07206035	-0.3534346	0.03189606	
213.515	23.31032	209.432	0	3						0.0722767	-0.367396	0.0328541	
213.536	23.3304	209.4521	0	3						0.07224039	-0.3815047	0.03437001	
213.556	23.3506	209.4723	0	3						0.07227344	-0.394724	0.03502065	
213.580	23.37433	209.496	0	3						0.07250322	-0.4085987	0.03528379	
213.601	23.39662	209.5183	0	3						0.07222291	-0.4220546	0.03419024	
213.626	23.42045	209.5421	0	3						0.07272585	-0.4365193	0.03246904	
213.650	23.44552	209.5672	0	3						0.07388207	-0.4511734	0.03063809	
213.669	23.4641	209.5858	0	3						0.07595924	-0.4640397	0.02930525	
213.690	23.48528	209.607	0	3						0.07822844	-0.4763947	0.02741026	
213.715	23.50995	209.6316	0	3						0.08091308	-0.4867164	0.02525738	
213.735	23.52986	209.6516	0	3						0.08215734	-0.4936186	0.02331904	
213.758	23.55285	209.6745	0	3						0.08372021	-0.4988827	0.02107183	
213.781	23.57572	209.6974	0	3						0.08427794	-0.5012422	0.01870392	
213.805	23.59916	209.7208	0	3						0.08608181	-0.5014503	0.01664746	
213.842	23.63653	209.7582	0	3						0.0880392	-0.50093	0.01586323	
213.859	23.65425	209.7759	0	3						0.09050158	-0.4987706	0.01581374	
213.876	23.67073	209.7924	0	3						0.09236286	-0.4982979	0.01591083	
213.892	23.68723	209.8089	0	3						0.09358702	-0.4980237	0.01600644	
213.909	23.70382	209.8255	0	3						0.09384923	-0.497581	0.01605257	
213.932	23.72705	209.8487	0	3						0.09330699	-0.4969691	0.01478842	
213.956	23.75044	209.8721	0	3						0.09148014	-0.4952846	0.0131265	
213.978	23.77292	209.8946	0	3						0.08998661	-0.4938272	0.01225804	
214.001	23.7956	209.9173	0	3						0.08904507	-0.4928726	0.01137959	
214.024	23.81852	209.9402	0	3						0.08719062	-0.492204	0.01106623	
214.048	23.84258	209.9643	0	3						0.08523128	-0.4930624	0.01047432	
214.070	23.86421	209.9859	0	3						0.08320752	-0.4943407	0.009640882	
214.091	23.88621	210.0079	0	3						0.08077617	-0.4956639	0.007755188	
214.115	23.90986	210.0315	0	3						0.07952659	-0.4963197	0.006862465	
214.136	23.93118	210.0529	0	3						0.07850747	-0.4962906	0.005475575	
214.158	23.95223	210.0739	0	3						0.07783758	-0.4959224	0.004182837	
214.180	23.97566	210.0974	0	3						0.07757597	-0.4946969	0.002335645	
214.203	23.99813	210.1198	0	3						0.07755398	-0.4934031	0.0006944146	
214.227	24.02159	210.1433	0	3						0.07708892	-0.4920757	-0.001642	
214.248	24.04264	210.1643	0	3						0.07634541	-0.4901679	-0.004424571	
214.276	24.06821	210.1899	0	3						0.07628711	-0.4871264	-0.007004961	
214.294	24.08911	210.2108	0	3						0.0754122	-0.4849104	-0.01025243	
214.315	24.10951	210.2312	0	3						0.07522579	-0.4820664	-0.01277741	
214.336	24.13089	210.2526	0	3						0.07511197	-0.4787627	-0.01489696	
214.358	24.15277	210.2745	0	3						0.07501025	-0.4757521	-0.01632672	
214.383	24.17798	210.2997	0	3						0.07542886	-0.4728549	-0.01790344	
214.406	24.19933	210.321	0	3						0.07610299	-0.4710531	-0.01935387	
214.451	24.24384	210.3655	0	3						0.07685349	-0.4687304	-0.01939448	
214.470	24.26513	210.3868	0	3						0.07655846	-0.468091	-0.01836858	
214.486	24.28119	210.4029	0	3						0.07652292	-0.4666454	-0.01736133	
214.501	24.29678	210.4185	0	3						0.07604641	-0.4661979	-0.01645727	
214.519	24.31399	210.4357	0	3						0.07554322	-0.4666044	-0.01576702	
214.536	24.33121	210.4529	0	3						0.07429917	-0.466011	-0.01500279	
214.552	24.34745	210.4691	0	3						0.07392329	-0.4658271	-0.01509422	
214.569	24.36446	210.4861	0	3						0.07229863	-0.4648522	-0.01483142	
214.596	24.39018	210.5119	0	3						0.071395	-0.4648945	-0.01496883	
214.612	24.40747	210.5292	0	3						0.07010134	-0.4647283	-0.0148134	
214.628	24.42258	210.5443	0	3						0.0688516	-0.4648522	-0.0148609	
214.646	24.44037	210.5621	0	3						0.06814527	-0.4648707	-0.01488956	
214.662	24.44037	210.5791	1	3	120	0	-0.2598076	0	-0.15	0.00668096	-0.003417296	-0.05967635	
214.662	24.45743	210.5791	0	3						0.06816839	-0.4651988	-0.0150898	
214.681	24.47512	210.5968	0	3						0.06778186	-0.4653505	-0.01532202	
214.697	24.49263	210.6143	0	3						0.06738236	-0.4661434	-0.01502107	
214.719	24.5144	210.6361	0	3						0.06699203	-0.4665856	-0.01467633	
214.742	24.53706	210.6587	0	3						0.06718727	-0.4668233	-0.01423647	
214.765	24.56036	210.6821	0	3						0.0671098	-0.4667179	-0.01374761	
214.785	24.58057	210.7023	0	3						0.06737365	-0.4654755	-0.01305785	
214.806	24.60145	210.7231	0	3						0.06644614	-0.462193	-0.01183015	
214.824	24.6192	210.7409	0	3						0.06515491	-0.4563368	-0.01110308	
214.847	24.64172	210.7634	0	3						0.0632401	-0.4477482	-0.01039326	
214.870	24.6653	210.787	0	3						0.06142264	-0.435097	-0.01072191	
214.891	24.68633	210.808	0	3						0.06062804	-0.4166847	-0.01077811	
214.913	24.7075	210.8292	0	3						0.06177584	-0.3934709	-0.01175797	
214.939	24.73327	210.855	0	3						0.06451177	-0.3649959	-0.01156872	
214.959	24.75414	210.8758	0	3						0.0680356	-0.3323697	-0.01141223	
214.980	24.77417	210.8959	0	3						0.07142111	-0.29915	-0.01093283	
215.013	24.80712	210.9288	0	3						0.07637329	-0.2659485	-0.01087182	
215.029	24.82345	210.9451	0	3						0.07992852	-0.2367273	-0.01020793	
215.045	24.83962	210.9613	0	3						0.08286221	-0.2099394	-0.01045548	
215.068	24.86275	210.9844	0	3						0.08686636	-0.1843413	-0.01039508	
215.093	24.88757	211.0093	0	3						0.08991809	-0.1616554	-0.01128681	
215.113	24.9083	211.03	0	3						0.09145512	-0.141375	-0.01241279	
215.134	24.92846	211.0501	0	3						0.09506181	-0.1216495	-0.01408879	
215.160	24.95339	211.0751	0	3						0.09849337	-0.1023351	-0.01828062	
215.181	24.97585	211.0975	0	3						0.1009457	-0.08388797	-0.02270328	
215.204	24.99848	211.1202	0	3						0.102819	-0.06529558	-0.02728422	
215.226	25.02113	211.1428	0	3						0.1035901	-0.04825157	-0.03074208	
215.251	25.04614	211.1678	0	3						0.1047123	-0.03254938	-0.03341085	
215.269	25.06349	211.1852	0	3						0.1061231	-0.01930609	-0.0353113	
215.293	25.08813	211.2098	0	3						0.1069174	-0.006716629	-0.03649209	
215.315	25.10968	211.2314	0	3						0.1065594	0.003689045	-0.0360367	
215.337	25.13239	211.2541	0	3						0.1045772	0.01332741	-0.03488275	
215.361	25.15554	211.2772	0	3						0.1026559	0.02252748	-0.03275674	
215.382	25.17671	211.2984	0	3						0.1003145	0.03039261	-0.03039447	
215.407	25.20138	211.3231	0	3						0.09820755	0.03845549	-0.02794391	
215.427	25.22191	211.3436	0	3						0.09548739	0.04467003	-0.02475802	
215.447	25.24184	211.3635	0	3						0.09432922	0.05014873	-0.02191279	
215.471	25.26593	211.3876	0	3						0.09240639	0.0541407	-0.0188464	
215.493	25.28745	211.4091	0	3						0.09179995	0.05601886	-0.01669542	
215.514	25.30878	211.4305	0	3						0.09112618	0.0555254	-0.01442818	
215.539	25.33347	211.4552	0	3						0.09192541	0.0549513	-0.01269483	
215.568	25.36269	211.4844	0	3						0.09181846	0.05324106	-0.01111066	
215.586	25.38103	211.5027	0	3						0.09157844	0.05104358	-0.01005564	
215.616	25.41127	211.533	0	3						0.09168556	0.04922458	-0.009244595	
215.633	25.42799	211.5497	0	3						0.09184717	0.04764202	-0.007994236	
215.649	25.44424	211.5659	0	3						0.09169599	0.04574243	-0.007421595	
215.666	25.46148	211.5832	0	3						0.09137674	0.04420288	-0.006208962	
215.688	25.48323	211.6049	0	3						0.09115843	0.04305169	-0.005586662	
215.713	25.50773	211.6294	0	3						0.0909088	0.0414033	-0.004763936	
215.736	25.5298	211.6515	0	3						0.0912501	0.0395047	-0.003559364	
215.759	25.55335	211.675	0	3						0.09120334	0.03785361	-0.002557037	
215.781	25.57549	211.6972	0	3						0.09087133	0.03626581	-0.001361811	
215.802	25.59675	211.7184	0	3						0.09089449	0.03507226	-0.0007238579	
215.827	25.59675	211.742	1	5	180	0	2.622683E-08	0	-0.3	0.002168206	-0.00969497	0.001934776	
215.827	25.62027	211.742	0	5						0.09016045	0.03391625	4.54811E-06	
215.848	25.64237	211.7641	0	5						0.08954973	0.03310479	0.001570294	
215.870	25.66508	211.7868	0	5						0.08860446	0.03226774	0.002635889	
215.897	25.69168	211.8134	0	5						0.08815183	0.03146766	0.003168499	
215.915	25.71014	211.8318	0	5						0.08831658	0.03085815	0.003532795	
215.932	25.72736	211.849	0	5						0.0881009	0.03021808	0.003400612	
215.949	25.74394	211.8656	0	5						0.08831368	0.03022985	0.003493113	
215.966	25.76143	211.8831	0	5						0.08832213	0.03004989	0.003520756	
215.984	25.77877	211.9005	0	5						0.08833414	0.02934639	0.003270233	
216.000	25.79486	211.9165	0	5						0.08857077	0.0294435	0.003071049	
216.016	25.81112	211.9328	0	5						0.08865143	0.02916568	0.002600939	
216.033	25.82806	211.9497	0	5						0.08926557	0.02874917	0.002367545	
216.056	25.85039	211.9721	0	5						0.08914837	0.02878109	0.002085171	
216.074	25.86827	211.99	0	5						0.08918299	0.02920446	0.00214509	
216.092	25.88636	212.008	0	5						0.08943681	0.03066894	0.001776256	
216.108	25.90269	212.0244	0	5						0.08933423	0.03226668	0.002026784	
216.125	25.91967	212.0414	0	5						0.08940748	0.03333751	0.002219597	
216.144	25.93892	212.0606	0	5						0.08884642	0.03476432	0.002271861	
216.179	25.97421	212.0959	0	5						0.08876546	0.03477387	0.002705901	
216.195	25.9905	212.1122	0	5						0.0882628	0.0309034	0.003211332	
216.223	26.01638	212.1381	0	5						0.08773096	0.02406005	0.003415665	
216.241	26.03566	212.1573	0	5						0.08673438	0.01140798	0.003028181	
216.257	26.05225	212.1739	0	5						0.08513058	-0.003698857	0.00326554	
216.274	26.06895	212.1906	0	5						0.08361019	-0.02132726	0.003623435	
216.294	26.08866	212.2103	0	5						0.08093288	-0.04285711	0.00463667	
216.314	26.10938	212.2311	0	5						0.07670867	-0.06746805	0.005867251	
216.338	26.1328	212.2545	0	5						0.07263324	-0.09569353	0.00769794	
216.362	26.15667	212.2784	0	5						0.06995399	-0.1261834	0.009565217	
216.387	26.18137	212.3031	0	5						0.06961201	-0.1586925	0.01308265	
216.404	26.19903	212.3207	0	5						0.06834463	-0.1936293	0.01929383	
216.427	26.22172	212.3434	0	5						0.06619026	-0.2286818	0.02595477	
216.446	26.24063	212.3623	0	5						0.06356362	-0.2631895	0.03206003	
216.469	26.26383	212.3855	0	5						0.06165158	-0.2953041	0.03646354	
216.492	26.28659	212.4083	0	5						0.05997651	-0.3258294	0.04120668	
216.515	26.31047	212.4321	0	5						0.058217	-0.3537652	0.04580776	
216.544	26.33897	212.4607	0	5						0.05675231	-0.3795079	0.04748197	
216.562	26.35728	212.479	0	5						0.05473738	-0.4000317	0.04843337	
216.580	26.37506	212.4967	0	5						0.05389951	-0.4209061	0.04789348	
216.602	26.39721	212.5189	0	5						0.05317397	-0.4402491	0.04710226	
216.627	26.42146	212.5432	0	5						0.05219387	-0.4598399	0.04412002	
216.649	26.44402	212.5657	0	5						0.05140618	-0.4796857	0.04192204	
216.671	26.46478	212.5865	0	5						0.05147147	-0.4977855	0.03917289	
216.695	26.49015	212.6118	0	5						0.05170675	-0.5145178	0.03710734	
216.718	26.5123	212.634	0	5						0.05193045	-0.529091	0.03547906	
216.736	26.53066	212.6523	0	5						0.05192332	-0.5436393	0.03278207	
216.758	26.55323	212.6749	0	5						0.05217639	-0.557184	0.03061228	
216.783	26.57748	212.6992	0	5						0.05223637	-0.5695948	0.02826145	
216.814	26.60847	212.7301	0	5						0.05131776	-0.5812163	0.02776156	
216.830	26.62541	212.7471	0	5						0.05097497	-0.5915123	0.02734263	
216.854	26.64953	212.7712	0	5						0.05118327	-0.60069	0.02711493	
216.870	26.66538	212.7871	0	5						0.05021329	-0.609176	0.0293058	
216.890	26.68521	212.8069	0	5						0.0495524	-0.6179764	0.03091783	
