Time	keytime	time-time	keypress	target id	target_lon	target_lat	target_x	target_y	target_z	hmd_rx	hmd_ry	hmd_rz	
243.379	0.02468306	239.3819	0	5						0.03656688	-0.01867997	-0.0008359784	
243.399	0.04664534	239.4039	0	5						0.0358746	-0.01792603	-0.001138905	
243.425	0.07053867	239.4278	0	5						0.0358083	-0.01722329	-0.001342412	
243.445	0.09249818	239.4497	0	5						0.03549697	-0.01640667	-0.001412256	
243.466	0.1130501	239.4703	0	5						0.03532946	-0.01560504	-0.001670571	
243.488	0.1343684	239.4916	0	5						0.03537044	-0.01551202	-0.002175082	
243.508	0.1554868	239.5127	0	5						0.03554325	-0.01494584	-0.002521927	
243.531	0.1784739	239.5357	0	5						0.03554065	-0.0142713	-0.002807053	
243.554	0.2019449	239.5592	0	5						0.03592024	-0.01364413	-0.003090101	
243.576	0.2232399	239.5805	0	5						0.03650793	-0.01276733	-0.003361334	
243.599	0.2464616	239.6037	0	5						0.03694684	-0.01211546	-0.003487492	
243.621	0.269248	239.6265	0	5						0.03730155	-0.01147268	-0.003842416	
243.644	0.291699	239.6489	0	5						0.03743191	-0.01076741	-0.003927459	
243.667	0.3129181	239.6702	0	5						0.03771536	-0.009876193	-0.003816468	
243.688	0.3351625	239.6924	0	5						0.03756433	-0.009717957	-0.00380639	
243.723	0.3702566	239.7275	0	5						0.03738193	-0.009069157	-0.0037961	
243.739	0.3871905	239.7444	0	5						0.0371611	-0.008443085	-0.003479696	
243.762	0.4082702	239.7655	0	5						0.03701431	-0.008305822	-0.003475499	
243.777	0.42409	239.7813	0	5						0.03673013	-0.007947935	-0.003409867	
243.792	0.4398585	239.7971	0	5						0.03669772	-0.007976128	-0.003464378	
243.808	0.4557985	239.813	0	5						0.0367477	-0.007857366	-0.003502261	
243.827	0.4745635	239.8318	0	5						0.03673665	-0.007891349	-0.003598421	
243.842	0.4894348	239.8467	0	5						0.03678745	-0.008071925	-0.003813287	
243.859	0.5058947	239.8631	0	5						0.03681836	-0.008172689	-0.003895108	
243.874	0.5222154	239.8794	0	5						0.03688358	-0.008428483	-0.003991225	
243.893	0.5403831	239.8976	0	5						0.03690635	-0.008733365	-0.004136824	
243.912	0.5597807	239.917	0	5						0.03710312	-0.009090013	-0.004380156	
243.933	0.5806952	239.9379	0	5						0.0371307	-0.00926696	-0.00441806	
243.954	0.6012254	239.9585	0	5						0.03738479	-0.009575896	-0.004508862	
243.976	0.6240833	239.9813	0	5						0.0376145	-0.009758761	-0.004523184	
243.998	0.6456134	240.0028	0	5						0.03774793	-0.009946998	-0.004305077	
244.020	0.667815	240.0251	0	5						0.03801049	-0.01001779	-0.004058624	
244.043	0.6904039	240.0476	0	5						0.03806936	-0.01003095	-0.003942292	
244.065	0.7122619	240.0695	0	5						0.03814478	-0.009886743	-0.003892764	
244.089	0.7363827	240.0936	0	5						0.03820092	-0.009801946	-0.003793633	
244.109	0.7571961	240.1144	0	5						0.03813475	-0.009697271	-0.003778864	
244.131	0.7785852	240.1358	0	5						0.03818142	-0.009563256	-0.003709428	
244.156	0.8036839	240.1609	0	5						0.03813529	-0.009638357	-0.003788528	
244.178	0.8243358	240.1816	0	5						0.03810215	-0.009814586	-0.003801393	
244.199	0.8457967	240.203	0	5						0.0380817	-0.01004037	-0.003819085	
244.220	0.8678743	240.2251	0	5						0.0379354	-0.01059363	-0.003842066	
244.250	0.8975545	240.2548	0	5						0.03783198	-0.0112344	-0.00370946	
244.268	0.9155168	240.2728	0	5						0.03769233	-0.0116589	-0.003441496	
244.286	0.934159	240.2914	0	5						0.03746802	-0.01230687	-0.003268884	
244.308	0.9559059	240.3131	0	5						0.03744872	-0.01248901	-0.0032609	
244.331	0.9787571	240.336	0	5						0.03733504	-0.0128213	-0.003150034	
244.353	1.000383	240.3576	0	5						0.03716936	-0.01318215	-0.003006384	
244.379	1.026355	240.3836	0	5						0.03711635	-0.01334914	-0.003021978	
244.401	1.048053	240.4053	0	5						0.03700845	-0.01348752	-0.002812772	
244.420	1.067526	240.4248	0	5						0.03687631	-0.01358619	-0.002738119	
244.442	1.090147	240.4474	0	5						0.03668138	-0.01349106	-0.002699223	
244.465	1.112213	240.4695	0	5						0.03654422	-0.01347368	-0.002538734	
244.487	1.134135	240.4914	0	5						0.03635396	-0.01348397	-0.002344007	
244.510	1.158062	240.5153	0	5						0.03616877	-0.01344428	-0.002245101	
244.532	1.179998	240.5372	0	5						0.03596827	-0.01318391	-0.002099544	
244.555	1.20217	240.5594	0	5						0.03596685	-0.01308058	-0.002054346	
244.577	1.224044	240.5813	0	5						0.03600176	-0.01299435	-0.00201306	
244.599	1.246171	240.6034	0	5						0.03610519	-0.01297005	-0.002025842	
244.622	1.269274	240.6265	0	5						0.03618687	-0.01279317	-0.00200084	
244.642	1.289728	240.647	0	5						0.03634047	-0.01268599	-0.001948347	
244.666	1.312864	240.6701	0	5						0.03645461	-0.01273266	-0.001973998	
244.689	1.336788	240.694	0	5						0.03662042	-0.01269158	-0.001841537	
244.711	1.358566	240.7158	0	5						0.03680108	-0.01276316	-0.001834282	
244.733	1.38073	240.738	0	5						0.03685176	-0.01286064	-0.001717147	
244.754	1.401701	240.7589	0	5						0.03687249	-0.01295702	-0.001675213	
244.793	1.425729	240.783	0	5						0.03679803	-0.01298068	-0.001685753	
244.810	1.45721	240.8144	0	5						0.03676348	-0.0129015	-0.00167591	
244.829	1.476874	240.8341	0	5						0.03675281	-0.01278415	-0.001701494	
244.853	1.501212	240.8584	0	5						0.03680515	-0.0125881	-0.001720557	
244.872	1.51956	240.8768	0	5						0.03697508	-0.01238565	-0.001884867	
244.888	1.53579	240.893	0	5						0.0371357	-0.01165182	-0.002017578	
244.907	1.554231	240.9115	0	5						0.03749099	-0.01133542	-0.002111984	
244.922	1.569459	240.9267	0	5						0.03786727	-0.0109573	-0.002188378	
244.938	1.58548	240.9427	0	5						0.03854468	-0.0101236	-0.002311231	
244.954	1.601873	240.9591	0	5						0.03953695	-0.00965147	-0.002210919	
244.972	1.619438	240.9767	0	5						0.04162229	-0.008247105	-0.002157415	
244.990	1.637175	240.9944	0	5						0.04149789	-0.008180063	-0.002094917	
245.011	1.658195	241.0154	0	5						0.04308159	-0.006505015	-0.001872412	
245.029	1.677137	241.0344	0	5						0.04382282	-0.006155367	-0.001648286	
245.047	1.69504	241.0523	0	5						0.04468953	-0.004510425	-0.001437093	
245.071	1.717401	241.0746	0	5						0.04487919	-0.003982225	-0.001462124	
245.092	1.739578	241.0968	0	5						0.04498687	-0.003269008	-0.001508326	
245.112	1.759615	241.1169	0	5						0.0450113	-0.002502445	-0.001500797	
245.134	1.781431	241.1387	0	5						0.04498396	-0.00208725	-0.001333396	
245.156	1.8034	241.1606	0	5						0.04511761	-0.001465163	-0.00147226	
245.177	1.824648	241.1819	0	5						0.04519572	-0.0009988568	-0.001511216	
245.202	1.84905	241.2063	0	5						0.04541764	-0.0004752078	-0.001512084	
245.220	1.868203	241.2254	0	5						0.04541761	-4.390916E-05	-0.001641871	
245.243	1.890716	241.248	0	5						0.04539142	0.0003217926	-0.001539626	
245.265	1.912523	241.2698	0	5						0.04480777	0.0006568334	-0.001369785	
245.287	1.933826	241.2911	0	5						0.04441527	0.0009132322	-0.000954228	
245.318	1.965659	241.3229	0	5						0.04277543	0.001808079	-0.0004880441	
245.339	1.986835	241.3441	0	5						0.04159353	0.003457165	-0.0002319521	
245.357	2.004966	241.3622	0	5						0.04024868	0.004632834	0.0001376078	
245.376	2.022792	241.38	0	5						0.03861383	0.005805213	0.0001707641	
245.398	2.046053	241.4033	0	5						0.03778165	0.007054879	0.0003066286	
245.419	2.066096	241.4233	0	5						0.03815414	0.006784565	0.0006506216	
245.442	2.089283	241.4465	0	5						0.03805809	0.006814564	0.0007243096	
245.464	2.111163	241.4684	0	5						0.0382059	0.006613635	0.0008320941	
245.490	2.137141	241.4944	0	5						0.03851607	0.006182306	0.0007154297	
245.511	2.158912	241.5161	0	5						0.03919435	0.005437427	0.0003083889	
245.531	2.17845	241.5357	0	5						0.03981686	0.004343884	-0.0005070224	
245.555	2.201742	241.559	0	5						0.04060278	0.003791353	-0.00135704	
245.576	2.223391	241.5806	0	5						0.04196515	0.002870761	-0.002340359	
245.597	2.244346	241.6016	0	5						0.04334725	0.001657362	-0.003087241	
245.621	2.268889	241.6261	0	5						0.04479739	0.001060775	-0.004279014	
245.642	2.289394	241.6466	0	5						0.04620764	0.000484233	-0.005146303	
245.665	2.31223	241.6695	0	5						0.04794433	-0.0001219911	-0.006349717	
245.688	2.335504	241.6927	0	5						0.04940555	-0.0001493923	-0.007439166	
245.709	2.356251	241.7135	0	5						0.05048214	-0.0004372606	-0.008116682	
245.732	2.379041	241.7363	0	5						0.05229447	-0.0007291245	-0.008519707	
245.753	2.401293	241.7585	0	5						0.05400714	-0.002403644	-0.007482325	
245.778	2.425515	241.7827	0	5						0.05556014	-0.003613863	-0.006538368	
245.800	2.447246	241.8045	0	5						0.05585143	-0.004675318	-0.005271931	
245.822	2.46924	241.8265	0	5						0.05605274	-0.00527221	-0.004060456	
245.843	2.49059	241.8478	0	5						0.05571106	-0.005662745	-0.002585824	
245.867	2.514305	241.8715	0	5						0.05549567	-0.005735321	-0.001395537	
245.899	2.546676	241.9039	0	5						0.05659157	-0.005231765	-0.000374048	
245.916	2.563976	241.9212	0	5						0.05743329	-0.003897649	4.905829E-05	
245.936	2.583657	241.9409	0	5						0.05849176	-0.002578611	0.0003850833	
245.952	2.599617	241.9568	0	5						0.05924743	-0.0008073921	0.0001765204	
245.975	2.621303	241.9785	0	5						0.05981079	0.0009774675	-0.0004020407	
246.000	2.647212	242.0044	0	5						0.06076558	0.002566267	-0.001029456	
246.020	2.667331	242.0246	0	5						0.06076519	0.004059515	-0.001458455	
246.043	2.690348	242.0476	0	5						0.06087249	0.004997978	-0.002280261	
246.066	2.71315	242.0704	0	5						0.06083992	0.005339877	-0.002606061	
246.084	2.731938	242.0892	0	5						0.0604867	0.005977754	-0.002897373	
246.102	2.749749	242.107	0	5						0.06052538	0.005498692	-0.003165448	
246.124	2.771493	242.1287	0	5						0.06027381	0.005341424	-0.003420551	
246.141	2.788816	242.146	0	5						0.05991095	0.005166701	-0.003985429	
246.160	2.807353	242.1646	0	5						0.05968039	0.004742744	-0.0044844	
246.176	2.823797	242.181	0	5						0.0588349	0.003773828	-0.005157948	
246.193	2.840922	242.1982	0	5						0.05896574	0.00357571	-0.005420194	
246.210	2.857655	242.2149	0	5						0.05800312	0.003080212	-0.005760411	
246.229	2.876363	242.2336	0	5						0.057576	0.002949501	-0.006150329	
246.245	2.892754	242.25	0	5						0.05674909	0.002700516	-0.006752941	
246.264	2.91117	242.2684	0	5						0.05595498	0.002664607	-0.007449069	
246.285	2.932379	242.2896	0	5						0.05570767	0.002834403	-0.007954241	
246.309	2.956579	242.3138	0	5						0.05515978	0.003002429	-0.008595709	
246.331	2.979084	242.3363	0	5						0.05517423	0.003855756	-0.009227729	
246.353	3.00124	242.3585	0	5						0.05525771	0.004581136	-0.009914988	
246.375	3.022335	242.3796	0	5						0.05518659	0.005018848	-0.01065853	
246.398	3.045702	242.4029	0	5						0.05519262	0.005615839	-0.011189	
246.429	3.075881	242.4331	0	5						0.05556675	0.006408259	-0.01148424	
246.451	3.098124	242.4554	0	5						0.05584801	0.006961057	-0.01168732	
246.468	3.115136	242.4724	0	5						0.05603234	0.006937926	-0.01200095	
246.486	3.133805	242.491	0	5						0.05655763	0.007208239	-0.01221847	
246.507	3.154452	242.5117	0	5						0.05700929	0.007247503	-0.01254166	
246.531	3.178887	242.5361	0	5						0.05735079	0.007313138	-0.01290575	
246.553	3.200718	242.558	0	5						0.05781816	0.007039424	-0.01325956	
246.577	3.224201	242.5814	0	5						0.05812827	0.006803015	-0.01374086	
246.598	3.24586	242.6031	0	5						0.05854776	0.00598189	-0.01422262	
246.622	3.269867	242.6271	0	5						0.05920888	0.005105912	-0.01482534	
246.647	3.269867	242.649	1	2	90	0	-0.3	0	-1.311342E-08	0.01044811	-0.01136543	0.04781229	
246.647	3.291782	242.649	0	2						0.05906476	0.004406313	-0.01501578	
246.666	3.313663	242.6709	0	2						0.05927559	0.003261127	-0.01554613	
246.686	3.333712	242.6909	0	2						0.05914777	0.002554602	-0.01577944	
246.710	3.357371	242.7146	0	2						0.05907786	0.002097283	-0.01580434	
246.734	3.381176	242.7384	0	2						0.05886688	0.001384928	-0.01592795	
246.755	3.402397	242.7596	0	2						0.05860386	0.0009031915	-0.01574872	
246.779	3.426018	242.7832	0	2						0.05835068	0.0009194473	-0.01547265	
246.800	3.447151	242.8044	0	2						0.05829192	0.0008268232	-0.01505278	
246.823	3.470085	242.8273	0	2						0.05844221	0.001085829	-0.01450699	
246.840	3.487598	242.8448	0	2						0.05852315	0.001070618	-0.01392142	
246.864	3.511626	242.8689	0	2						0.05863486	0.0003911958	-0.01258415	
246.888	3.534833	242.8921	0	2						0.05886533	-0.003942088	-0.01065674	
246.908	3.556102	242.9133	0	2						0.05934111	-0.009228168	-0.009468681	
246.931	3.578953	242.9362	0	2						0.05925343	-0.0153906	-0.007840695	
246.952	3.600138	242.9574	0	2						0.05919654	-0.02591703	-0.006628927	
246.983	3.630637	242.9879	0	2						0.05851685	-0.0408411	-0.005352194	
246.999	3.646776	243.004	0	2						0.05773172	-0.06348905	-0.004258544	
247.020	3.667582	243.0248	0	2						0.05674167	-0.08711212	-0.002224248	
247.042	3.689669	243.0469	0	2						0.0538747	-0.1162928	7.09468E-05	
247.063	3.710808	243.068	0	2						0.05095385	-0.1467987	0.001585561	
247.089	3.735363	243.0926	0	2						0.04707449	-0.1779208	0.003248477	
247.110	3.757869	243.1151	0	2						0.04365803	-0.2111263	0.005331602	
247.133	3.779921	243.1372	0	2						0.04142547	-0.2444163	0.007259275	
247.153	3.801161	243.1584	0	2						0.04057116	-0.2763158	0.009018469	
247.178	3.825518	243.1828	0	2						0.03932075	-0.3100197	0.01222897	
247.199	3.846675	243.2039	0	2						0.03788179	-0.3455907	0.01632149	
247.221	3.868931	243.2262	0	2						0.03697702	-0.380291	0.02024713	
247.246	3.893011	243.2502	0	2						0.03605153	-0.4130318	0.0239187	
247.269	3.91662	243.2738	0	2						0.0354028	-0.4427628	0.02723046	
247.288	3.935986	243.2932	0	2						0.03440749	-0.4702941	0.03025437	
247.310	3.95797	243.3152	0	2						0.033695	-0.4968143	0.03295906	
247.334	3.981458	243.3387	0	2						0.03340977	-0.5195187	0.0341262	
247.359	4.005181	243.3624	0	2						0.0342562	-0.5390257	0.03530083	
247.377	4.024798	243.382	0	2						0.0342989	-0.5580447	0.0366971	
247.399	4.047184	243.4044	0	2						0.03381427	-0.5766538	0.03716747	
247.422	4.069117	243.4263	0	2						0.03336853	-0.5932927	0.03702615	
247.445	4.092646	243.4499	0	2						0.03306527	-0.6068637	0.03624914	
247.465	4.112235	243.4695	0	2						0.03294093	-0.6175725	0.03497605	
247.489	4.136739	243.494	0	2						0.03315424	-0.6263384	0.03302598	
247.511	4.15885	243.5161	0	2						0.03407628	-0.6312302	0.03006995	
247.534	4.181607	243.5388	0	2						0.03399602	-0.6351208	0.02667303	
247.572	4.218316	243.5755	0	2						0.03426226	-0.6372947	0.02220993	
247.589	4.236747	243.594	0	2						0.03521375	-0.6382529	0.01747783	
247.604	4.252057	243.6093	0	2						0.03615535	-0.6397947	0.01388481	
247.624	4.271117	243.6283	0	2						0.03750778	-0.6413942	0.0111345	
247.645	4.292397	243.6496	0	2						0.03915353	-0.642575	0.008621949	
247.667	4.313788	243.671	0	2						0.04122211	-0.6424422	0.006240871	
247.689	4.33685	243.6941	0	2						0.04216447	-0.6414455	0.004259619	
247.711	4.358972	243.7162	0	2						0.04316881	-0.6400207	0.002817222	
247.734	4.380613	243.7378	0	2						0.04305318	-0.638046	0.001529491	
247.755	4.401809	243.759	0	2						0.04260347	-0.6358912	0.000355595	
247.778	4.425998	243.7832	0	2						0.04251	-0.6336281	-0.001019821	
247.799	4.446465	243.8037	0	2						0.04178006	-0.6313757	-0.001779031	
247.822	4.469405	243.8266	0	2						0.04098228	-0.629243	-0.001962096	
247.843	4.490534	243.8478	0	2						0.04011973	-0.6267605	-0.002170451	
247.868	4.515726	243.873	0	2						0.03847138	-0.6247013	-0.001976971	
247.891	4.53828	243.8955	0	2						0.03615212	-0.6226622	-0.001528321	
247.910	4.557131	243.9144	0	2						0.03372534	-0.6202406	-0.0007398791	
247.932	4.579304	243.9365	0	2						0.03092526	-0.6178057	-0.0001121659	
247.955	4.602746	243.96	0	2						0.02779144	-0.6148976	0.000688337	
247.977	4.624888	243.9821	0	2						0.02433068	-0.6118898	0.0009637347	
248.001	4.648137	244.0054	0	2						0.02110247	-0.6087332	0.001608711	
248.024	4.671828	244.0291	0	2						0.01747106	-0.6054391	0.001835039	
248.044	4.691795	244.049	0	2						0.01426449	-0.6029718	0.001463553	
248.067	4.714814	244.0721	0	2						0.01143425	-0.6010483	0.00124185	
248.089	4.736963	244.0942	0	2						0.009310967	-0.5992397	0.0004669987	
248.122	4.76971	244.1269	0	2						0.007709322	-0.5980609	0.0008028299	
248.141	4.788362	244.1456	0	2						0.007206138	-0.5978633	0.0009968405	
248.157	4.805208	244.1624	0	2						0.006556029	-0.5974883	0.001295778	
248.177	4.824927	244.1822	0	2						0.006480125	-0.5974457	0.001424335	
248.195	4.842679	244.1999	0	2						0.006315117	-0.5974945	0.001658565	
248.211	4.859398	244.2166	0	2						0.006174874	-0.5974835	0.00185744	
248.230	4.87739	244.2346	0	2						0.00600341	-0.5973204	0.002388838	
248.246	4.893077	244.2503	0	2						0.005710158	-0.597392	0.003008653	
248.264	4.910986	244.2682	0	2						0.005987666	-0.5974658	0.003317137	
248.287	4.933526	244.2908	0	2						0.006492483	-0.597626	0.003732606	
248.307	4.955022	244.3123	0	2						0.007410774	-0.5970573	0.004278291	
248.332	4.979937	244.3372	0	2						0.008472189	-0.5964543	0.004356599	
248.353	5.000782	244.358	0	2						0.01068798	-0.5950293	0.004883463	
248.375	5.022218	244.3795	0	2						0.01212775	-0.5939437	0.004496869	
248.399	5.046037	244.4033	0	2						0.01334177	-0.59218	0.004253427	
248.422	5.046037	244.4261	1	2	90	0	-0.3	0	-1.311342E-08	0.008543785	0.006676455	-0.03658145	
248.422	5.068888	244.4261	0	2						0.0142238	-0.5899532	0.003771628	
248.446	5.093	244.4502	0	2						0.01469238	-0.5874563	0.003751991	
248.465	5.112566	244.4698	0	2						0.01528699	-0.5847111	0.003043302	
248.487	5.135154	244.4924	0	2						0.01574751	-0.5816213	0.002755553	
248.512	5.159233	244.5165	0	2						0.01573234	-0.5772545	0.001903607	
248.533	5.180326	244.5376	0	2						0.01623816	-0.5721743	0.001551253	
248.553	5.200858	244.5581	0	2						0.01643486	-0.5667667	0.0002196942	
248.578	5.224813	244.582	0	2						0.01696069	-0.5602659	-0.000524557	
248.598	5.245868	244.6031	0	2						0.01743317	-0.5519235	-0.002339609	
248.621	5.268011	244.6252	0	2						0.01879205	-0.5394133	-0.005678833	
248.644	5.291745	244.649	0	2						0.0198316	-0.5214613	-0.008419095	
248.681	5.32772	244.685	0	2						0.02201391	-0.4963754	-0.01240287	
248.698	5.345678	244.7029	0	2						0.02497723	-0.4602451	-0.01618379	
248.718	5.365902	244.7231	0	2						0.02661939	-0.4241444	-0.018892	
248.738	5.385415	244.7426	0	2						0.02782379	-0.3853336	-0.02085623	
248.755	5.403101	244.7603	0	2						0.02786079	-0.3454601	-0.02315204	
248.778	5.425879	244.7831	0	2						0.02750423	-0.3048279	-0.02447359	
248.801	5.44858	244.8058	0	2						0.02662078	-0.2664067	-0.02553167	
248.822	5.469734	244.827	0	2						0.02652109	-0.2298513	-0.02620632	
248.843	5.49053	244.8478	0	2						0.02739372	-0.196556	-0.02735001	
248.866	5.513086	244.8703	0	2						0.02874506	-0.1640246	-0.02981868	
248.887	5.533991	244.8912	0	2						0.0295218	-0.1341434	-0.03236385	
248.910	5.557906	244.9151	0	2						0.03050525	-0.1082923	-0.0353212	
248.931	5.578439	244.9357	0	2						0.03127459	-0.08650137	-0.03729342	
248.954	5.601757	244.959	0	2						0.03190286	-0.06717549	-0.03963248	
248.977	5.624909	244.9821	0	2						0.03070542	-0.05205625	-0.04028765	
248.998	5.646142	245.0034	0	2						0.03005852	-0.04018142	-0.04107352	
249.021	5.66818	245.0254	0	2						0.02905159	-0.03041824	-0.04149371	
249.043	5.690251	245.0475	0	2						0.02793645	-0.02054489	-0.04322478	
249.065	5.71296	245.0702	0	2						0.02697119	-0.009549592	-0.04589218	
249.088	5.73562	245.0928	0	2						0.02468881	0.0001455165	-0.04775241	
249.110	5.757372	245.1146	0	2						0.02222768	0.008719769	-0.04813329	
249.134	5.780387	245.1376	0	2						0.01969005	0.01694278	-0.04785148	
249.155	5.802166	245.1594	0	2						0.01810732	0.02342281	-0.04643947	
249.181	5.802166	245.1832	1	5	180	0	2.622683E-08	0	-0.3	0.02545187	0.007205103	0.004793092	
249.181	5.825978	245.1832	0	5						0.01723121	0.02953912	-0.04424779	
249.199	5.846804	245.204	0	5						0.0168314	0.03359473	-0.04141408	
249.221	5.868857	245.2261	0	5						0.01688684	0.03772722	-0.03834261	
249.253	5.900635	245.2579	0	5						0.01677384	0.04041907	-0.03436916	
249.271	5.918867	245.2761	0	5						0.01647306	0.04325026	-0.03107937	
249.296	5.94176	245.299	0	5						0.01651357	0.04669127	-0.02762728	
249.317	5.963585	245.3208	0	5						0.01741304	0.05016808	-0.02498489	
