Time	keytime	time-time	keypress	target id	target_lon	target_lat	target_x	target_y	target_z	hmd_rx	hmd_ry	hmd_rz	
316.650	0.02558381	312.476	0	4						0.1124641	354.4518	356.5899	
316.671	0.04753977	312.498	0	4						0.1014537	354.5475	356.5801	
316.693	0.06961385	312.5201	0	4						0.1397433	354.6205	356.5739	
316.714	0.0903625	312.5408	0	4						0.1514707	354.6567	356.5836	
316.736	0.1129269	312.5634	0	4						0.2100749	354.7025	356.5948	
316.767	0.1449308	312.5954	0	4						0.2164511	354.7351	356.6182	
316.786	0.1633869	312.6138	0	4						0.28612	354.7848	356.6455	
316.806	0.1834106	312.6339	0	4						0.3017701	354.8092	356.6599	
316.827	0.2037385	312.6542	0	4						0.3365106	354.844	356.6778	
316.843	0.2201526	312.6706	0	4						0.3436662	354.8578	356.6926	
316.864	0.2405939	312.691	0	4						0.3444488	354.8698	356.7029	
316.887	0.2638286	312.7143	0	4						0.3492397	354.8914	356.721	
316.912	0.2894338	312.7399	0	4						0.3532154	354.9045	356.7287	
316.935	0.3117429	312.7622	0	4						0.3336407	354.9279	356.7272	
316.958	0.3353443	312.7858	0	4						0.3645059	354.9764	356.7193	
316.983	0.3592626	312.8097	0	4						0.3920313	355.0328	356.7242	
317.001	0.3774686	312.8279	0	4						0.4378748	355.1186	356.7303	
317.025	0.4015287	312.852	0	4						0.4675196	355.1563	356.7349	
317.046	0.4229691	312.8734	0	4						0.500716	355.2374	356.7393	
317.070	0.446828	312.8973	0	4						0.5520803	355.3185	356.7473	
317.090	0.4667463	312.9172	0	4						0.6661493	355.465	356.7646	
317.116	0.4915194	312.942	0	4						0.7160615	355.5557	356.7915	
317.135	0.5126461	312.9631	0	4						0.8663549	355.78	356.8495	
317.159	0.5363846	312.9868	0	4						1.049812	355.9762	356.9168	
317.180	0.5571681	313.0076	0	4						1.232123	356.1887	356.8854	
317.204	0.5810235	313.0315	0	4						1.442636	356.5137	356.9367	
317.223	0.6008907	313.0513	0	4						1.786087	356.8333	356.9173	
317.248	0.6253335	313.0758	0	4						2.164794	357.1277	357.005	
317.268	0.6455508	313.096	0	4						2.596718	357.4275	357.049	
317.294	0.6705199	313.121	0	4						3.023631	357.7851	357.0961	
317.313	0.690505	313.141	0	4						3.396976	358.0868	357.1876	
317.339	0.7148269	313.1653	0	4						3.757425	358.3817	357.2701	
317.368	0.7450954	313.1955	0	4						4.096341	358.644	357.2968	
317.388	0.7652676	313.2157	0	4						4.331097	358.8988	357.3677	
317.405	0.7824117	313.2328	0	4						4.627767	359.1375	357.4002	
317.424	0.8011637	313.2516	0	4						4.854399	359.3535	357.4615	
317.444	0.8210175	313.2715	0	4						5.049473	359.5456	357.528	
317.468	0.84527	313.2957	0	4						5.25501	359.6614	357.5931	
317.491	0.8680113	313.3185	0	4						5.2998	359.8226	357.6552	
317.511	0.8881291	313.3386	0	4						5.445813	359.8822	357.6025	
317.532	0.9081678	313.3586	0	4						5.395648	359.8543	357.6228	
317.551	0.9268763	313.3773	0	4						5.459311	359.9193	357.6389	
317.570	0.9469178	313.3974	0	4						5.526307	359.965	357.6477	
317.588	0.9645522	313.415	0	4						5.564812	359.9933	357.6549	
317.607	0.9845217	313.435	0	4						5.560135	-0.001686427	357.6455	
317.626	1.002779	313.4532	0	4						5.551662	0.002216736	357.6365	
317.646	1.023408	313.4738	0	4						5.541097	-0.0007523418	357.6245	
317.666	1.043188	313.4936	0	4						5.517731	359.958	357.6033	
317.690	1.06705	313.5175	0	4						5.427944	359.9482	357.5887	
317.713	1.089928	313.5404	0	4						5.382206	359.9243	357.5656	
317.734	1.11143	313.5619	0	4						5.296037	359.9264	357.5425	
317.758	1.135309	313.5858	0	4						5.225262	359.9474	357.5145	
317.778	1.155507	313.606	0	4						5.134554	359.9388	357.5023	
317.802	1.179084	313.6295	0	4						5.037593	359.9622	357.469	
317.826	1.202411	313.6529	0	4						4.901379	0.01048408	357.4455	
317.847	1.223574	313.674	0	4						4.850036	0.01013719	357.4048	
317.871	1.247756	313.6982	0	4						4.706125	0.06052862	357.3673	
317.891	1.267542	313.718	0	4						4.466016	0.1011034	357.3752	
317.915	1.291622	313.7421	0	4						4.34851	0.1295152	357.3562	
317.948	1.324084	313.7745	0	4						4.137311	0.1388189	357.3058	
317.967	1.344157	313.7946	0	4						3.87499	0.1844566	357.295	
317.988	1.365158	313.8156	0	4						3.589493	0.2252748	357.286	
318.008	1.38552	313.836	0	4						3.196367	0.2749309	357.2871	
318.029	1.406409	313.8568	0	4						2.792395	0.351172	357.289	
318.048	1.425896	313.8763	0	4						2.317616	0.3940854	357.2837	
318.067	1.444258	313.8947	0	4						1.838488	0.4700099	357.2771	
318.086	1.463799	313.9142	0	4						1.338159	0.4779457	357.2216	
318.110	1.486984	313.9374	0	4						0.7341612	0.5051135	357.192	
318.132	1.50872	313.9592	0	4						0.2544483	0.5198391	357.1516	
318.158	1.534296	313.9847	0	4						359.7952	0.4055336	357.0408	
318.177	1.554443	314.0049	0	4						359.3293	0.3409777	356.9762	
318.204	1.580039	314.0305	0	4						358.9061	0.2147397	356.8992	
318.223	1.600585	314.051	0	4						358.6193	0.08659086	356.771	
318.249	1.624515	314.075	0	4						358.3026	359.954	356.7342	
318.268	1.644862	314.0953	0	4						358.0481	359.8493	356.6022	
318.292	1.668234	314.1187	0	4						357.8753	359.823	356.4969	
318.313	1.688587	314.139	0	4						357.7803	359.8227	356.3609	
318.337	1.713658	314.1641	0	4						357.6809	359.8606	356.2674	
318.356	1.73377	314.1842	0	4						357.764	359.912	356.1373	
318.379	1.756859	314.2073	0	4						357.7826	359.9786	355.9691	
318.402	1.779576	314.23	0	4						357.9406	0.02911067	355.7769	
318.424	1.800077	314.2505	0	4						358.2465	0.04191821	355.653	
318.446	1.823151	314.2736	0	4						358.4072	0.09188695	355.6195	
318.470	1.847008	314.2975	0	4						358.7166	0.1293804	355.4591	
318.492	1.868941	314.3194	0	4						358.9189	0.1620581	355.4166	
318.527	1.903237	314.3537	0	4						359.088	0.1510175	355.3837	
318.546	1.923121	314.3736	0	4						359.235	0.1790781	355.3741	
318.567	1.94343	314.3939	0	4						359.3846	0.177114	355.3766	
318.586	1.963184	314.4136	0	4						359.4985	0.2320763	355.4281	
318.604	1.980725	314.4312	0	4						359.5388	0.2555618	355.4594	
318.620	1.997347	314.4478	0	4						359.5831	0.2837013	355.5258	
318.640	2.016975	314.4674	0	4						359.5945	0.321405	355.5486	
318.659	2.035716	314.4861	0	4						359.6345	0.3367821	355.6177	
318.678	2.05539	314.5058	0	4						359.6417	0.3692431	355.7032	
318.697	2.074742	314.5252	0	4						359.6578	0.367254	355.7433	
318.719	2.096423	314.5469	0	4						359.6638	0.3260385	355.8326	
318.740	2.117424	314.5679	0	4						359.6587	0.2900493	355.916	
318.763	2.139399	314.5898	0	4						359.6553	0.2631298	355.9324	
318.782	2.159477	314.6099	0	4						359.6531	0.1737624	355.9671	
318.804	2.180541	314.631	0	4						359.6699	0.166888	356.0206	
318.825	2.202121	314.6526	0	4						359.6689	0.1395857	356.031	
318.847	2.223345	314.6738	0	4						359.6912	0.1526385	356.0253	
318.868	2.245031	314.6955	0	4						359.7041	0.2894414	355.9981	
318.892	2.268249	314.7187	0	4						359.7594	0.7327122	355.9474	
318.911	2.288297	314.7387	0	4						359.8167	1.587696	355.7791	
318.937	2.313182	314.7636	0	4						359.9478	2.981813	355.3185	
318.959	2.335458	314.7859	0	4						0.1779555	5.646343	354.7903	
318.980	2.356667	314.8071	0	4						0.2992258	8.547255	354.7048	
319.004	2.379987	314.8304	0	4						0.4163872	11.39412	354.7939	
319.025	2.401642	314.8521	0	4						0.6197559	14.52603	354.7775	
319.059	2.436337	314.8868	0	4						0.8394582	17.70373	354.7784	
319.081	2.458225	314.9087	0	4						0.9872329	20.84349	354.95	
319.101	2.477573	314.928	0	4						1.101514	23.66292	355.1658	
319.120	2.496839	314.9473	0	4						1.19903	26.2044	355.3205	
319.138	2.51519	314.9656	0	4						1.265697	28.6336	355.5121	
319.156	2.533887	314.9843	0	4						1.384541	30.99308	355.782	
319.177	2.553992	315.0044	0	4						1.469388	33.10238	356.0179	
319.196	2.573015	315.0235	0	4						1.48495	35.18654	356.2515	
319.220	2.596819	315.0473	0	4						1.553298	37.49639	356.351	
319.242	2.618851	315.0693	0	4						1.484988	39.97399	356.5267	
319.267	2.64387	315.0943	0	4						1.396336	42.57006	356.7252	
319.290	2.666939	315.1174	0	4						1.26499	45.95864	356.8365	
319.312	2.688831	315.1393	0	4						1.038287	49.52695	357.0229	
319.333	2.709868	315.1603	0	4						1.013432	53.10411	357.1709	
319.358	2.734421	315.1849	0	4						0.9468783	56.78842	357.3034	
319.379	2.755907	315.2064	0	4						0.8721882	60.52242	357.3441	
319.402	2.778792	315.2292	0	4						0.9618966	64.14524	357.2851	
319.423	2.800169	315.2506	0	4						1.082095	67.85674	357.0853	
319.445	2.822238	315.2727	0	4						1.138711	71.32756	356.9317	
319.468	2.845083	315.2955	0	4						1.291913	74.30551	356.7438	
319.490	2.866986	315.3174	0	4						1.416827	76.78302	356.5352	
319.514	2.890121	315.3406	0	4						1.644443	78.79763	356.3745	
319.534	2.91133	315.3618	0	4						1.919714	80.50171	356.1507	
319.558	2.933883	315.3843	0	4						2.120885	81.8332	355.876	
319.579	2.956477	315.4069	0	4						2.31543	83.04823	355.596	
319.606	2.982448	315.4329	0	4						2.537641	84.07621	355.376	
319.637	3.013567	315.464	0	4						2.63168	85.09388	355.241	
319.657	3.03375	315.4842	0	4						2.70634	86.10884	355.0892	
319.675	3.052373	315.5028	0	4						2.705727	87.14432	354.9435	
319.695	3.071511	315.5219	0	4						2.726991	88.23768	354.7996	
319.713	3.089845	315.5403	0	4						2.68469	89.36302	354.6947	
319.731	3.107759	315.5582	0	4						2.604696	90.48639	354.6881	
319.755	3.130845	315.5813	0	4						2.478118	91.69785	354.6026	
319.777	3.154112	315.6046	0	4						2.403984	92.85995	354.5974	
319.800	3.177842	315.6283	0	4						2.464416	94.12384	354.6404	
319.821	3.198736	315.6492	0	4						2.39983	95.33861	354.6534	
319.845	3.222137	315.6726	0	4						2.28984	96.32771	354.743	
319.868	3.244912	315.6953	0	4						2.286805	97.01955	354.7864	
319.889	3.266097	315.7166	0	4						2.115199	97.47984	354.807	
319.914	3.291039	315.7415	0	4						1.964612	97.71503	354.9654	
319.936	3.31269	315.7631	0	4						1.868353	97.91621	355.1261	
319.958	3.334343	315.7848	0	4						1.720438	98.07426	355.2036	
319.980	3.356724	315.8072	0	4						1.638129	98.19417	355.4054	
320.001	3.377938	315.8284	0	4						1.542673	98.26366	355.5356	
320.027	3.402946	315.8534	0	4						1.557843	98.36057	355.6542	
320.046	3.422667	315.8731	0	4						1.652406	98.24992	355.814	
320.072	3.448468	315.8989	0	4						1.853245	97.85382	355.9785	
320.090	3.467319	315.9178	0	4						1.97614	97.07704	355.9521	
320.118	3.495219	315.9456	0	4						2.096656	95.99788	356.0035	
320.136	3.513823	315.9643	0	4						2.263261	94.0632	356.1522	
320.159	3.536538	315.987	0	4						2.438548	91.74046	356.2547	
320.183	3.560525	316.011	0	4						2.558877	88.58492	356.3139	
320.205	3.581534	316.032	0	4						2.755431	84.68507	356.3365	
320.235	3.611957	316.0624	0	4						2.921525	80.22428	356.3281	
320.255	3.631755	316.0822	0	4						2.996583	74.75193	356.3371	
320.274	3.650842	316.1013	0	4						3.037485	69.17863	356.2378	
320.294	3.671566	316.122	0	4						2.965685	63.60163	356.106	
320.311	3.689327	316.1398	0	4						2.760871	58.05893	356.0516	
320.334	3.711006	316.1614	0	4						2.625136	52.33552	356.0262	
320.357	3.734279	316.1847	0	4						2.354581	46.34008	356.0806	
320.378	3.75514	316.2056	0	4						2.090474	40.65119	356.0536	
320.400	3.777318	316.2278	0	4						1.632728	35.36671	356.0753	
320.425	3.802236	316.2527	0	4						1.191577	30.10516	356.2689	
320.446	3.822716	316.2732	0	4						0.8684805	25.32879	356.4257	
320.470	3.847167	316.2976	0	4						0.4740675	21.0657	356.5051	
320.492	3.868562	316.319	0	4						0.1883269	17.79789	356.6307	
320.514	3.89045	316.3409	0	4						359.9427	14.55445	356.8795	
320.538	3.914886	316.3653	0	4						359.9197	11.87108	357.0448	
320.559	3.936329	316.3868	0	4						359.9226	10.03052	357.2155	
320.581	3.958128	316.4086	0	4						359.7946	8.294207	357.4804	
320.603	3.979658	316.4301	0	4						359.5591	6.801953	357.7903	
320.628	4.004138	316.4546	0	4						359.3775	5.4934	357.9591	
320.651	4.027628	316.4781	0	4						359.4669	4.41195	358.1259	
320.671	4.0479	316.4984	0	4						359.4922	3.399925	358.3056	
320.695	4.072438	316.5229	0	4						359.4384	2.441832	358.4998	
320.714	4.091362	316.5418	0	4						359.3745	1.747048	358.6772	
320.739	4.116529	316.567	0	4						359.4705	1.198205	358.7258	
320.761	4.137492	316.5879	0	4						359.5362	0.8770361	358.7881	
320.795	4.17142	316.6219	0	4						359.6792	0.7564629	358.8058	
320.816	4.192801	316.6432	0	4						359.7421	0.9028419	358.8031	
320.835	4.212297	316.6628	0	4						359.8138	1.051632	358.7856	
320.857	4.23354	316.684	0	4						359.9397	1.255816	358.7169	
320.874	4.25065	316.7011	0	4						-0.004704896	1.388009	358.6697	
320.893	4.269445	316.7199	0	4						0.08983965	1.609906	358.5994	
320.912	4.288978	316.7394	0	4						0.1675298	1.864633	358.4825	
320.929	4.305885	316.7563	0	4						0.1785168	2.020219	358.4137	
320.949	4.3264	316.7769	0	4						0.2249482	2.292177	358.2756	
320.969	4.346835	316.7973	0	4						0.3381041	2.756829	358.0936	
320.989	4.366829	316.8173	0	4						0.3401757	2.801319	358.0768	
321.010	4.386939	316.8374	0	4						0.3368991	2.706742	358.1147	
321.030	4.407318	316.8578	0	4						0.323129	2.649219	358.0999	
321.049	4.426546	316.877	0	4						0.3418128	2.397089	358.1068	
321.067	4.444171	316.8946	0	4						0.3490421	2.080387	358.1532	
321.091	4.466698	316.9171	0	4						0.3114022	1.829824	358.2406	
321.112	4.489269	316.9397	0	4						0.3240902	1.465593	358.4054	
321.135	4.511589	316.962	0	4						0.2230737	0.9336681	358.7022	
321.159	4.5358	316.9862	0	4						0.1217663	0.4141055	358.8963	
321.180	4.556854	317.0073	0	4						0.03617698	0.09276445	359.0791	
321.204	4.580336	317.0308	0	4						359.9145	359.7558	359.3008	
321.224	4.600567	317.051	0	4						359.8141	359.5373	359.5034	
321.247	4.623744	317.0742	0	4						359.8102	359.3968	359.6219	
321.270	4.646629	317.0971	0	4						359.8726	359.3063	359.715	
321.291	4.667855	317.1183	0	4						359.9189	359.3356	359.7786	
321.315	4.690298	317.1407	0	4						359.9365	359.3242	359.7895	
321.335	4.712756	317.1632	0	4						359.93	359.3754	359.7701	
321.369	4.712756	317.1942	1	2	90	0	-0.3	0	-1.311342E-08	-0.01489322	0.04319257	0.09101366	
321.369	4.743763	317.1942	0	2						359.9148	359.4871	359.6861	
321.388	4.765017	317.2155	0	2						359.9079	359.6311	359.5763	
321.408	4.784335	317.2348	0	2						359.9073	359.7721	359.4844	
321.428	4.804906	317.2553	0	2						359.8965	359.9322	359.4663	
321.446	4.82286	317.2733	0	2						359.8832	0.09874257	359.3733	
321.468	4.844316	317.2948	0	2						359.8427	0.2889107	359.3018	
321.494	4.870113	317.3206	0	2						359.8081	0.5700393	359.1796	
321.516	4.892382	317.3428	0	2						359.8443	0.8994882	359.0883	
321.540	4.916245	317.3667	0	2						359.7845	1.182953	359.0039	
321.560	4.936626	317.3871	0	2						359.7622	1.47004	358.9223	
321.582	4.958778	317.4092	0	2						359.702	1.895505	358.8013	
321.603	4.979079	317.4295	0	2						359.7218	2.460911	358.644	
321.623	5.00026	317.4507	0	2						359.7456	3.257086	358.4971	
321.644	5.021719	317.4722	0	2						359.708	4.364371	358.2951	
321.669	5.046264	317.4967	0	2						359.7871	6.087445	358.0952	
321.692	5.069341	317.5198	0	2						359.8757	8.341845	357.8708	
321.715	5.090816	317.5413	0	2						0.005037291	10.55155	357.8357	
321.735	5.112374	317.5628	0	2						0.1379744	12.43535	357.7704	
321.758	5.134909	317.5854	0	2						0.2784161	14.12368	357.6071	
321.783	5.159828	317.6103	0	2						0.4431292	15.66144	357.4383	
321.806	5.1826	317.633	0	2						0.4404095	16.634	357.2788	
321.827	5.2032	317.6537	0	2						0.440494	16.678	357.0507	
321.848	5.22472	317.6752	0	2						0.4083536	16.07807	356.7234	
321.871	5.247419	317.6979	0	2						0.2934166	14.38445	356.451	
321.894	5.270468	317.7209	0	2						0.1801857	11.6705	356.2691	
321.914	5.291524	317.742	0	2						0.1132646	8.259157	356.0902	
321.951	5.32696	317.7774	0	2						359.9376	4.355886	356.0627	
321.967	5.344482	317.7949	0	2						359.7647	359.623	356.1326	
321.990	5.36671	317.8171	0	2						359.5806	355.0179	356.1858	
322.008	5.38476	317.8352	0	2						359.3291	350.1087	356.3153	
322.028	5.404922	317.8554	0	2						359.041	345.0084	356.5415	
322.048	5.425141	317.8756	0	2						358.7844	339.8787	356.7651	
322.067	5.443645	317.8941	0	2						358.6534	334.9501	357.0234	
322.090	5.466403	317.9168	0	2						358.5066	330.092	357.3423	
322.112	5.489097	317.9395	0	2						358.5565	325.3477	357.552	
322.136	5.512414	317.9629	0	2						358.5939	320.9025	357.7239	
322.157	5.534315	317.9847	0	2						358.7508	316.3928	357.3607	
322.180	5.55763	318.0081	0	2						358.7864	311.8949	356.6167	
322.204	5.580948	318.0314	0	2						358.903	307.7288	356.2333	
322.224	5.601807	318.0522	0	2						358.8693	303.8917	356.0676	
322.247	5.624464	318.0749	0	2						358.8098	300.7153	355.9052	
322.271	5.648217	318.0987	0	2						358.8383	298.3319	355.6178	
322.294	5.670426	318.1209	0	2						358.9897	296.7575	355.1108	
322.314	5.691445	318.1419	0	2						359.356	295.8691	354.5178	
322.338	5.714808	318.1653	0	2						359.8368	295.7734	354.0894	
322.357	5.734161	318.1846	0	2						0.3967488	296.3736	353.7953	
322.382	5.758022	318.2085	0	2						0.7621397	297.1782	353.5149	
322.404	5.780428	318.2309	0	2						1.169649	298.3309	353.2206	
322.426	5.802588	318.253	0	2						1.634945	299.6341	353.0014	
322.449	5.825448	318.2759	0	2						1.94547	300.6659	353.0158	
322.471	5.847117	318.2975	0	2						2.056139	301.633	352.9062	
322.492	5.868288	318.3187	0	2						2.31483	302.7614	352.8279	
322.526	5.902512	318.353	0	2						2.559929	303.579	352.9021	
322.546	5.923274	318.3737	0	2						2.586125	304.4699	353.031	
322.566	5.943086	318.3935	0	2						2.555732	305.2349	353.2652	
322.584	5.961634	318.4121	0	2						2.431687	305.9553	353.5207	
322.605	5.981144	318.4316	0	2						2.242516	306.6115	353.7162	
322.624	6.001514	318.452	0	2						2.046921	307.2799	353.9303	
322.646	6.022697	318.4731	0	2						1.752429	307.7764	354.1372	
322.670	6.045885	318.4963	0	2						1.452007	308.1462	354.4117	
322.692	6.068682	318.5191	0	2						1.179736	308.4441	354.6401	
322.717	6.093634	318.5441	0	2						0.9317527	308.6452	354.8418	
322.737	6.113766	318.5642	0	2						0.7470053	308.8094	355.0533	
322.760	6.136517	318.5869	0	2						0.5702938	308.9974	355.2291	
322.782	6.158448	318.6089	0	2						0.4285358	309.1889	355.4736	
322.806	6.182308	318.6328	0	2						0.2302367	309.4054	355.6943	
322.825	6.201614	318.6521	0	2						0.03375234	309.5571	355.9007	
322.851	6.226737	318.6772	0	2						359.7985	309.7195	356.1798	
322.871	6.247315	318.6978	0	2						359.5424	309.9316	356.4155	
322.893	6.269176	318.7196	0	2						359.397	310.0238	356.733	
322.915	6.291833	318.7423	0	2						359.0647	310.0855	357.0094	
322.941	6.291833	318.7674	1	2	90	0	-0.3	0	-1.311342E-08	-0.0423747	0.04327099	0.09300164	
322.941	6.316929	318.7674	0	2						358.9184	310.0517	357.2387	
322.961	6.338374	318.7888	0	2						358.8614	310.057	357.5253	
322.985	6.362416	318.8129	0	2						358.8659	309.9702	357.7721	
323.009	6.386403	318.8369	0	2						359.0159	309.8271	357.9842	
323.027	6.404665	318.8551	0	2						359.2245	309.5649	358.1856	
323.049	6.425863	318.8763	0	2						359.4073	309.2613	358.3713	
323.071	6.44786	318.8983	0	2						359.5972	309.0804	358.5834	
323.104	6.480685	318.9311	0	2						359.8083	309.0119	358.7115	
323.123	6.499854	318.9503	0	2						359.9622	309.034	358.74	
323.142	6.519055	318.9695	0	2						0.05425972	309.2062	358.7616	
323.162	6.538651	318.9891	0	2						0.1199026	309.8282	358.7831	
323.181	6.557429	319.0079	0	2						0.1735312	310.9741	358.7377	
323.200	6.576705	319.0271	0	2						0.2725109	311.877	358.7191	
323.218	6.595247	319.0457	0	2						0.5105524	313.6367	358.7512	
323.237	6.614747	319.0652	0	2						0.7259489	315.8123	358.6275	
323.256	6.633062	319.0835	0	2						0.8907117	317.2592	358.461	
323.277	6.654279	319.1047	0	2						1.183999	319.9872	358.2316	
323.298	6.675271	319.1257	0	2						1.473205	323.1465	357.9583	
323.318	6.694841	319.1453	0	2						1.784856	326.6252	357.6783	
323.337	6.713907	319.1643	0	2						1.993875	330.1908	357.5204	
323.357	6.733802	319.1842	0	2						2.068105	333.5479	357.4656	
323.376	6.752931	319.2034	0	2						2.186913	337.0177	357.2907	
323.400	6.777236	319.2277	0	2						2.352046	340.6671	357.0057	
323.424	6.800965	319.2514	0	2						2.457029	343.7602	356.6417	
323.447	6.824659	319.2751	0	2						2.339281	346.5512	356.4992	
323.467	6.844621	319.2951	0	2						2.428266	348.9569	356.3163	
