Time	keytime	time-time	keypress	target id	target_lon	target_lat	target_x	target_y	target_z	hmd_rx	hmd_ry	hmd_rz	
553.039	0.02372266	548.7594	0	15						1.109424	359.8005	355.3739	
553.072	0.05748738	548.7932	0	15						1.239494	359.8846	355.5436	
553.089	0.07482308	548.8105	0	15						1.253476	359.9032	355.6906	
553.109	0.09466466	548.8303	0	15						1.296226	359.9599	355.8787	
553.130	0.1161572	548.8518	0	15						1.298554	0.08476652	356.0581	
553.149	0.1346101	548.8703	0	15						1.23364	0.1048576	356.2407	
553.167	0.1531041	548.8888	0	15						1.203482	0.1560622	356.4207	
553.186	0.1711849	548.9069	0	15						1.077449	0.2279345	356.5743	
553.209	0.1943031	548.93	0	15						0.9890445	0.2845122	356.7852	
553.232	0.2167576	548.9525	0	15						0.7911286	0.3096588	356.967	
553.256	0.2412688	548.9769	0	15						0.6635168	0.2941607	357.1451	
553.278	0.2635685	548.9993	0	15						0.5427263	0.3084201	357.3242	
553.302	0.2879039	549.0236	0	15						0.4299056	0.2886167	357.4883	
553.323	0.3087754	549.0444	0	15						0.3158225	0.2763005	357.6646	
553.346	0.3322416	549.0679	0	15						0.256512	0.2373814	357.8266	
553.368	0.3543007	549.09	0	15						0.2281107	0.1758749	358.0146	
553.391	0.3765501	549.1122	0	15						0.2031915	0.07265697	358.096	
553.414	0.399871	549.1356	0	15						0.1991185	0.05737034	358.2254	
553.436	0.4222038	549.1579	0	15						0.2335199	0.0426064	358.2853	
553.460	0.4457527	549.1815	0	15						0.2500681	-0.0005528523	358.4075	
553.481	0.4658921	549.2016	0	15						0.2753423	359.9539	358.4931	
553.504	0.4893197	549.225	0	15						0.3233465	359.9271	358.6585	
553.525	0.5108671	549.2465	0	15						0.3059499	359.7293	358.7512	
553.548	0.5337372	549.2694	0	15						0.2558053	359.6255	358.8951	
553.570	0.5556802	549.2914	0	15						0.2109324	359.572	358.9689	
553.590	0.5764731	549.3121	0	15						0.1560332	359.4505	359.0271	
553.614	0.6003225	549.336	0	15						0.05320001	359.3832	359.0938	
553.637	0.6229734	549.3586	0	15						0.001341208	359.244	359.195	
553.659	0.6449692	549.3807	0	15						359.9487	359.1845	359.2439	
553.680	0.666239	549.4019	0	15						359.8556	359.0784	359.228	
553.704	0.6901876	549.4258	0	15						359.8189	359.0617	359.2659	
553.726	0.7111089	549.4468	0	15						359.7685	359.0397	359.2578	
553.743	0.7287167	549.4644	0	15						359.7377	358.9971	359.2794	
553.759	0.7447562	549.4804	0	15						359.7089	358.9946	359.263	
553.777	0.7631207	549.4988	0	15						359.7059	359.0093	359.2761	
553.795	0.780497	549.5162	0	15						359.6866	359.0038	359.2892	
553.812	0.7984917	549.5342	0	15						359.6451	359.023	359.2895	
553.831	0.8169228	549.5526	0	15						359.6508	359.0432	359.2952	
553.847	0.8334503	549.5692	0	15						359.6379	359.0822	359.29	
553.865	0.8509285	549.5866	0	15						359.6324	359.139	359.2657	
553.882	0.8687288	549.6044	0	15						359.6326	359.1868	359.2379	
553.914	0.9000604	549.6357	0	15						359.6333	359.2371	359.1929	
553.931	0.9169844	549.6526	0	15						359.6484	359.3435	359.1422	
553.947	0.9327418	549.6684	0	15						359.6821	359.4428	359.0976	
553.968	0.9536256	549.6893	0	15						359.7126	359.5319	359.0729	
553.992	0.9777539	549.7134	0	15						359.765	359.5991	358.9869	
554.013	0.9980941	549.7338	0	15						359.8086	359.6955	358.9638	
554.035	1.020956	549.7567	0	15						359.8704	359.7921	358.9111	
554.057	1.04298	549.7787	0	15						359.9059	359.8194	358.8588	
554.079	1.065155	549.8008	0	15						359.9653	359.9162	358.8232	
554.103	1.088302	549.824	0	15						359.9516	359.9455	358.7746	
554.122	1.108055	549.8438	0	15						359.9167	0.0138224	358.691	
554.146	1.132254	549.8679	0	15						359.881	0.02235579	358.5757	
554.169	1.153956	549.8896	0	15						359.8484	0.08990847	358.5428	
554.191	1.176434	549.9121	0	15						359.8672	0.06804831	358.4488	
554.215	1.200444	549.9361	0	15						359.7991	0.09962332	358.3274	
554.237	1.222543	549.9583	0	15						359.7287	0.1128454	358.2459	
554.258	1.244343	549.98	0	15						359.7506	0.1741904	358.173	
554.279	1.264956	550.0006	0	15						359.7123	0.2320316	358.0525	
554.301	1.287715	550.0234	0	15						359.7698	0.3436486	357.9135	
554.325	1.311062	550.0468	0	15						359.7669	0.3507773	357.831	
554.349	1.335152	550.0709	0	15						359.7941	0.452842	357.7202	
554.368	1.354459	550.0901	0	15						359.82	0.4814434	357.582	
554.392	1.378047	550.1137	0	15						359.8941	0.5403737	357.3974	
554.412	1.398585	550.1343	0	15						359.9345	0.5943545	357.2967	
554.438	1.423761	550.1594	0	15						0.01257815	0.5965109	357.1756	
554.459	1.444375	550.1801	0	15						0.07190745	0.6801073	357.0236	
554.482	1.467473	550.2031	0	15						0.1296985	0.7108719	356.9178	
554.503	1.488544	550.2242	0	15						0.1800341	0.7746522	356.776	
554.525	1.510783	550.2465	0	15						0.2289695	0.808683	356.5969	
554.551	1.536025	550.2717	0	15						0.2949294	0.8443483	356.4978	
554.570	1.555254	550.291	0	15						0.3675957	0.8785612	356.3583	
554.593	1.578189	550.3138	0	15						0.4376198	0.9558411	356.1995	
554.617	1.601759	550.3375	0	15						0.4214556	0.9910378	356.1585	
554.636	1.622249	550.3579	0	15						0.4355074	1.036738	356.0707	
554.660	1.645828	550.3815	0	15						0.4206411	1.133294	355.9711	
554.680	1.666592	550.4023	0	15						0.332947	1.173821	355.9547	
554.704	1.689797	550.4255	0	15						0.2479769	1.217514	355.8512	
554.726	1.712561	550.4482	0	15						0.2025392	1.227785	355.8173	
554.749	1.734873	550.4706	0	15						0.07681749	1.258297	355.7478	
554.771	1.756707	550.4924	0	15						0.02653146	1.23862	355.683	
554.793	1.778807	550.5145	0	15						359.84	1.225881	355.6308	
554.826	1.811785	550.5475	0	15						359.7087	1.201457	355.5754	
554.843	1.82865	550.5643	0	15						359.5298	1.144903	355.4612	
554.861	1.846202	550.5819	0	15						359.4016	1.127584	355.4147	
554.878	1.863984	550.5997	0	15						359.276	1.142052	355.3336	
554.901	1.886525	550.6222	0	15						359.1711	1.132873	355.2425	
554.920	1.905194	550.6409	0	15						359.048	1.173132	355.1729	
554.936	1.922518	550.6582	0	15						359.0716	1.158544	355.1723	
554.955	1.94025	550.6759	0	15						359.0227	1.174618	355.1369	
554.972	1.957425	550.6931	0	15						358.883	1.215992	355.0355	
554.988	1.974073	550.7098	0	15						358.8875	1.245386	354.9927	
555.006	1.992724	550.7284	0	15						358.8147	1.276311	354.9059	
555.022	2.008517	550.7442	0	15						358.765	1.340779	354.84	
555.039	2.025739	550.7614	0	15						358.7585	1.334458	354.7931	
555.056	2.042908	550.7786	0	15						358.7137	1.393636	354.7053	
555.073	2.059527	550.7952	0	15						358.7417	1.389005	354.7003	
555.093	2.079144	550.8148	0	15						358.7591	1.384688	354.643	
555.111	2.096487	550.8322	0	15						358.7967	1.432921	354.5839	
555.129	2.114814	550.8505	0	15						358.811	1.453766	354.5503	
555.147	2.133609	550.8693	0	15						358.8426	1.448785	354.4894	
555.164	2.15036	550.886	0	15						358.8629	1.465345	354.4266	
555.187	2.173441	550.9091	0	15						358.8664	1.492415	354.4021	
555.211	2.197118	550.9328	0	15						358.8851	1.514599	354.321	
555.234	2.22028	550.9559	0	15						358.874	1.54161	354.2832	
555.257	2.243684	550.9794	0	15						358.871	1.564902	354.2219	
555.279	2.264263	550.9999	0	15						358.8465	1.567599	354.2081	
555.303	2.289057	551.0247	0	15						358.8402	1.575928	354.1749	
555.325	2.310724	551.0464	0	15						358.8189	1.592732	354.1654	
555.347	2.333046	551.0687	0	15						358.7861	1.603197	354.1317	
555.368	2.353891	551.0896	0	15						358.7448	1.632855	354.1299	
555.391	2.377084	551.1128	0	15						358.7218	1.656915	354.1173	
555.413	2.398727	551.1344	0	15						358.6996	1.676612	354.112	
555.437	2.422638	551.1583	0	15						358.7045	1.698637	354.1178	
555.460	2.445533	551.1812	0	15						358.7214	1.715592	354.1414	
555.481	2.466549	551.2022	0	15						358.756	1.730792	354.1794	
555.507	2.492467	551.2281	0	15						358.7715	1.760436	354.2122	
555.526	2.51126	551.2469	0	15						358.8086	1.774947	354.236	
555.549	2.534501	551.2702	0	15						358.838	1.803661	354.2582	
555.569	2.555873	551.2916	0	15						358.8918	1.778686	354.3045	
555.591	2.577755	551.3134	0	15						358.9501	1.761664	354.3766	
555.616	2.60225	551.338	0	15						358.9781	1.724498	354.4114	
555.636	2.621909	551.3576	0	15						359.0329	1.685188	354.4593	
555.667	2.653104	551.3888	0	15						359.0533	1.617028	354.5228	
555.684	2.670279	551.4059	0	15						359.1122	1.564519	354.6159	
555.704	2.689698	551.4254	0	15						359.1705	1.478275	354.6986	
555.724	2.709747	551.4454	0	15						359.2284	1.409206	354.807	
555.746	2.731683	551.4673	0	15						359.284	1.266221	354.8974	
555.769	2.754755	551.4904	0	15						359.3865	1.237983	355.0201	
555.792	2.777569	551.5132	0	15						359.5086	1.119022	355.1559	
555.814	2.799398	551.5351	0	15						359.614	0.9829959	355.3274	
555.837	2.822468	551.5582	0	15						359.7513	0.8736635	355.447	
555.861	2.846588	551.5823	0	15						359.8844	0.757779	355.6633	
555.882	2.867101	551.6028	0	15						0.09148759	0.6047366	355.844	
555.906	2.891674	551.6274	0	15						0.2496825	0.456363	356.0725	
555.927	2.912907	551.6486	0	15						0.395815	0.3207673	356.225	
555.948	2.934248	551.6699	0	15						0.5326525	0.1668941	356.3787	
555.970	2.956227	551.6919	0	15						0.600985	0.06158836	356.555	
555.993	2.979491	551.7151	0	15						0.667876	359.9597	356.6463	
556.017	3.00293	551.7386	0	15						0.7388456	359.9172	356.8213	
556.040	3.026054	551.7617	0	15						0.7708932	359.9179	356.8959	
556.061	3.046454	551.7821	0	15						0.8225459	359.9084	356.9658	
556.079	3.065097	551.8008	0	15						0.8716711	359.9479	357.0017	
556.095	3.081076	551.8168	0	15						0.8904721	0.02507192	357.0516	
556.111	3.097351	551.833	0	15						0.8821887	0.07238171	357.091	
556.129	3.114789	551.8505	0	15						0.9222156	0.1866363	357.1466	
556.145	3.131156	551.8668	0	15						0.9037566	0.250053	357.1696	
556.163	3.148695	551.8844	0	15						0.9041339	0.3960986	357.2336	
556.181	3.167118	551.9028	0	15						0.9150465	0.4390107	357.2332	
556.199	3.184547	551.9202	0	15						0.921901	0.5416456	357.3064	
556.216	3.201985	551.9377	0	15						0.9278574	0.610015	357.3646	
556.237	3.22218	551.9579	0	15						0.9149192	0.6663724	357.3815	
556.258	3.243492	551.9792	0	15						0.9167033	0.7066892	357.4046	
556.279	3.264315	552	0	15						0.9158175	0.7313278	357.4581	
556.305	3.290046	552.0257	0	15						0.9149972	0.732504	357.5281	
556.325	3.311263	552.0469	0	15						0.9245177	0.7209578	357.5673	
556.347	3.333211	552.0689	0	15						0.9112558	0.7052002	357.6293	
556.369	3.354768	552.0905	0	15						0.904334	0.6592954	357.6799	
556.391	3.377556	552.1132	0	15						0.9152778	0.6232199	357.7166	
556.415	3.401316	552.137	0	15						0.9214655	0.5689961	357.7808	
556.437	3.423043	552.1587	0	15						0.9358001	0.5295715	357.8214	
556.460	3.445698	552.1814	0	15						0.9210288	0.4731857	357.8792	
556.482	3.468034	552.2037	0	15						0.9264509	0.4467159	357.8763	
556.514	3.499393	552.235	0	15						0.90469	0.408169	357.8808	
556.532	3.517792	552.2535	0	15						0.8698637	0.3379041	357.8878	
556.549	3.534576	552.2703	0	15						0.8364016	0.2843014	357.8896	
556.569	3.554778	552.2905	0	15						0.8507363	0.289428	357.8793	
556.589	3.575	552.3107	0	15						0.8254412	0.2469083	357.8688	
556.615	3.60017	552.3359	0	15						0.803028	0.2020956	357.8671	
556.637	3.622467	552.3582	0	15						0.7745917	0.2034459	357.8586	
556.657	3.643118	552.3788	0	15						0.737444	0.1841834	357.8491	
556.681	3.667241	552.4029	0	15						0.7239734	0.1665503	357.8429	
556.704	3.689458	552.4251	0	15						0.6803285	0.1528057	357.8611	
556.724	3.709954	552.4456	0	15						0.6447771	0.1394358	357.8888	
556.748	3.733493	552.4692	0	15						0.6191128	0.1095256	357.9041	
556.771	3.757466	552.4932	0	15						0.5506085	0.0747985	357.9701	
556.793	3.779175	552.5148	0	15						0.5354432	0.05350655	357.9995	
556.815	3.80129	552.537	0	15						0.5040571	0.006466205	358.0787	
556.837	3.823158	552.5588	0	15						0.4538167	359.9617	358.1638	
556.861	3.845881	552.5815	0	15						0.4254212	359.9456	358.25	
556.884	3.869232	552.6049	0	15						0.3111215	359.9719	358.3658	
556.905	3.891161	552.6268	0	15						0.2793245	359.926	358.4513	
556.928	3.91444	552.6501	0	15						0.2012429	359.8788	358.578	
556.949	3.935195	552.6709	0	15						0.130808	359.84	358.6594	
556.971	3.956918	552.6926	0	15						0.1102364	359.8106	358.7039	
556.994	3.979883	552.7156	0	15						0.04110696	359.7836	358.777	
557.015	4.0009	552.7366	0	15						0.002725921	359.7452	358.8424	
557.037	4.023505	552.7592	0	15						359.9298	359.6624	358.9145	
557.061	4.046797	552.7825	0	15						359.7926	359.5145	359.1635	
557.082	4.068362	552.804	0	15						359.6952	359.3838	359.4007	
557.105	4.090568	552.8262	0	15						359.4941	359.1978	359.612	
557.127	4.112724	552.8484	0	15						359.4404	359.0228	359.7671	
557.151	4.136274	552.8719	0	15						359.3248	358.8816	359.9413	
557.171	4.156278	552.892	0	15						359.2421	358.7319	0.1254242	
557.193	4.178998	552.9147	0	15						359.1675	358.6313	0.3452734	
557.217	4.202837	552.9385	0	15						359.1353	358.5714	0.5332804	
557.238	4.22376	552.9594	0	15						359.0246	358.5409	0.6959485	
557.257	4.242521	552.9782	0	15						359.0554	358.5067	0.8064243	
557.272	4.25879	552.9944	0	15						359.0321	358.5237	0.8704122	
557.291	4.277437	553.0131	0	15						359.0315	358.5485	0.9206018	
557.308	4.29422	553.0299	0	15						359.0001	358.5696	0.9996112	
557.325	4.310923	553.0466	0	15						358.9785	358.5872	1.055721	
557.340	4.326698	553.0624	0	15						358.9518	358.5625	1.130277	
557.357	4.343807	553.0795	0	15						358.934	358.5523	1.168667	
557.386	4.372211	553.1079	0	15						358.8695	358.5174	1.276788	
557.403	4.388981	553.1246	0	15						358.8133	358.5038	1.341255	
557.421	4.40672	553.1424	0	15						358.5849	358.399	1.604445	
557.440	4.426296	553.162	0	15						358.6205	358.4308	1.573991	
557.461	4.447288	553.183	0	15						358.6115	358.4646	1.582759	
557.483	4.4683	553.204	0	15						358.6153	358.4972	1.587683	
557.506	4.491594	553.2273	0	15						358.6233	358.6182	1.62495	
557.527	4.512369	553.248	0	15						358.67	358.7776	1.608272	
557.549	4.534738	553.2704	0	15						358.7711	358.9813	1.550274	
557.569	4.554373	553.29	0	15						358.7767	359.1478	1.471426	
557.592	4.577026	553.3127	0	15						358.9081	359.2771	1.381445	
557.615	4.600328	553.336	0	15						358.9304	359.4494	1.335152	
557.636	4.622036	553.3577	0	15						359.0188	359.536	1.200432	
557.660	4.646109	553.3818	0	15						359.1	359.6589	1.103191	
557.681	4.666794	553.4025	0	15						359.1573	359.7173	1.027808	
557.703	4.688883	553.4246	0	15						359.1686	359.7605	1.015982	
557.725	4.711682	553.4474	0	15						359.2682	359.8864	0.8795428	
557.748	4.734447	553.4702	0	15						359.3453	0.0728352	0.8019754	
557.773	4.75845	553.4941	0	15						359.3828	0.2395306	0.6925296	
557.792	4.778333	553.514	0	15						359.4084	0.3942914	0.6222068	
557.814	4.799854	553.5355	0	15						359.5967	0.5679186	0.5169784	
557.837	4.823233	553.5589	0	15						359.7034	0.6923991	0.4299107	
557.861	4.846524	553.5822	0	15						359.8328	0.7703701	0.3690722	
557.883	4.868957	553.6046	0	15						0.05561356	0.8730832	0.2955574	
557.905	4.890704	553.6264	0	15						0.285981	0.9905271	0.2219223	
557.926	4.912222	553.6479	0	15						0.5399559	1.039194	0.1729724	
557.950	4.935891	553.6716	0	15						0.775638	1.058922	0.1089172	
557.973	4.958159	553.6938	0	15						0.9443882	1.085002	0.05856903	
557.994	4.97838	553.7141	0	15						1.099006	1.15283	0.04500271	
558.017	5.002229	553.7379	0	15						1.149966	1.171468	0.03926231	
558.038	5.023993	553.7596	0	15						1.17061	1.191253	0.005051192	
558.063	5.048256	553.7839	0	15						1.18323	1.21249	0.001675641	
558.084	5.069696	553.8054	0	15						1.182153	1.253628	359.9877	
558.103	5.089668	553.8253	0	15						1.168602	1.290817	359.9563	
558.126	5.112599	553.8483	0	15						1.142411	1.322708	359.9442	
558.150	5.135559	553.8712	0	15						1.097308	1.332051	359.9111	
558.174	5.15987	553.8956	0	15						1.088053	1.356384	359.8986	
558.198	5.15987	553.9162	1	1	60	0	-0.4330127	0	0.25	-0.01041593	0.006927138	-0.1550696	
558.198	5.18051	553.9162	0	1						1.051541	1.367733	359.8889	
558.218	5.202534	553.9382	0	1						1.025203	1.398975	359.8826	
558.240	5.224468	553.9601	0	1						1.009084	1.405546	359.8737	
558.272	5.257647	553.9933	0	1						0.9796163	1.442153	359.8795	
558.304	5.289176	554.0248	0	1						0.9492166	1.460211	359.8546	
558.324	5.30952	554.0452	0	1						0.9337876	1.470577	359.8389	
558.341	5.327157	554.0629	0	1						0.9374877	1.468637	359.8436	
558.364	5.347996	554.0837	0	1						0.9362266	1.465887	359.851	
558.382	5.368196	554.1039	0	1						0.9340685	1.478793	359.8602	
558.399	5.385189	554.1208	0	1						0.9311181	1.502405	359.874	
558.415	5.401278	554.137	0	1						0.9476541	1.516391	359.8701	
558.436	5.422415	554.1581	0	1						0.9725693	1.530285	359.8851	
558.460	5.445374	554.181	0	1						0.9916556	1.571581	359.9031	
558.480	5.466087	554.2018	0	1						1.01309	1.601482	359.9109	
558.503	5.488621	554.2243	0	1						1.061745	1.629835	359.9054	
558.525	5.511072	554.2468	0	1						1.097071	1.64956	359.9101	
558.547	5.533282	554.269	0	1						1.153195	1.681761	359.942	
558.572	5.557419	554.2931	0	1						1.214843	1.711792	359.9703	
558.592	5.577586	554.3133	0	1						1.315714	1.744429	359.9853	
558.616	5.601309	554.337	0	1						1.339069	1.742001	359.9801	
558.638	5.623285	554.3589	0	1						1.391445	1.775348	-0.003283786	
558.658	5.644011	554.3797	0	1						1.476821	1.804696	359.989	
558.682	5.666628	554.4023	0	1						1.471457	1.791793	-0.001130379	
558.704	5.689645	554.4254	0	1						1.542103	1.789143	-0.001811408	
558.725	5.711136	554.4468	0	1						1.591129	1.793609	359.9828	
558.749	5.734726	554.4704	0	1						1.593351	1.774127	-0.001438726	
558.770	5.756735	554.4924	0	1						1.625749	1.73158	359.9814	
558.791	5.777333	554.513	0	1						1.675776	1.563829	359.9818	
558.816	5.802223	554.5379	0	1						1.711328	1.307974	359.989	
558.836	5.822393	554.558	0	1						1.721187	1.033434	359.9767	
558.861	5.846507	554.5822	0	1						1.732704	0.7189245	359.9779	
558.882	5.868145	554.6038	0	1						1.772511	0.3460083	359.9505	
558.906	5.892062	554.6277	0	1						1.794775	359.9314	359.9204	
558.926	5.911987	554.6476	0	1						1.806448	359.4488	359.9465	
558.950	5.935295	554.671	0	1						1.871906	358.9123	359.8845	
558.970	5.955999	554.6917	0	1						1.925056	358.2943	359.8243	
558.993	5.978453	554.7141	0	1						2.004789	357.6823	359.803	
559.017	6.001366	554.7371	0	1						2.13816	356.9763	359.774	
559.039	6.024131	554.7598	0	1						2.250263	356.1707	359.7869	
559.060	6.046438	554.7821	0	1						2.394501	355.2878	359.8106	
559.082	6.068739	554.8044	0	1						2.518867	354.3129	359.83	
559.105	6.091128	554.8268	0	1						2.578851	353.3007	359.8678	
559.141	6.126693	554.8624	0	1						2.632413	352.2151	359.9207	
559.159	6.144506	554.8802	0	1						2.749612	350.9947	359.9538	
559.176	6.161559	554.8972	0	1						2.824143	349.7981	359.9792	
559.194	6.179792	554.9155	0	1						2.878154	348.5107	359.9815	
559.214	6.200135	554.9358	0	1						2.929926	347.2311	0.009710682	
559.235	6.221149	554.9568	0	1						2.946275	345.8727	359.9785	
559.259	6.244747	554.9804	0	1						2.965826	344.6196	359.9489	
559.282	6.267492	555.0032	0	1						2.95732	343.2472	359.8265	
559.306	6.292014	555.0277	0	1						3.012046	341.8634	359.7657	
559.328	6.313715	555.0494	0	1						3.063599	340.4954	359.6993	
559.352	6.336552	555.0722	0	1						3.191647	339.177	359.6329	
559.373	6.358699	555.0944	0	1						3.263736	337.8445	359.5204	
559.394	6.379595	555.1153	0	1						3.36792	336.4832	359.442	
559.417	6.402827	555.1385	0	1						3.462338	335.1764	359.3331	
559.439	6.424752	555.1605	0	1						3.615978	333.8541	359.214	
559.460	6.4465	555.1822	0	1						3.660192	332.6277	359.1134	
559.482	6.468664	555.2043	0	1						3.743714	331.3352	358.9743	
559.506	6.492707	555.2284	0	1						3.812689	330.1865	358.8761	
559.529	6.514704	555.2504	0	1						3.891651	329.0473	358.7438	
559.549	6.534901	555.2706	0	1						3.897264	327.9774	358.6381	
559.571	6.556572	555.2922	0	1						3.913088	326.9319	358.5181	
559.594	6.579466	555.3151	0	1						3.913161	325.9503	358.3733	
559.617	6.602239	555.3379	0	1						3.857181	325.027	358.2832	
559.639	6.625031	555.3607	0	1						3.763202	324.0237	358.2543	
559.661	6.647185	555.3829	0	1						3.616111	322.9539	358.2079	
