Time	keytime	time-time	keypress	target id	target_lon	target_lat	target_x	target_y	target_z	hmd_rx	hmd_ry	hmd_rz	
372.979	0.02878616	368.8242	0	1						2.029958	359.8615	2.053946	
373.000	0.05021351	368.8456	0	1						2.067132	359.8543	2.025973	
373.023	0.0731974	368.8686	0	1						2.147303	359.8393	1.964663	
373.042	0.0920209	368.8875	0	1						2.15657	359.8055	1.965231	
373.061	0.1113327	368.9068	0	1						2.198749	359.75	1.925405	
373.084	0.1345177	368.93	0	1						2.221405	359.6937	1.913263	
373.107	0.1564531	368.9519	0	1						2.232504	359.6789	1.896185	
373.127	0.1773246	368.9727	0	1						2.248446	359.6365	1.854317	
373.149	0.2000611	368.9955	0	1						2.264844	359.602	1.839238	
373.173	0.2238956	369.0193	0	1						2.282338	359.5928	1.825619	
373.197	0.2474448	369.0429	0	1						2.280497	359.593	1.822969	
373.220	0.27023	369.0657	0	1						2.286519	359.6056	1.817396	
373.240	0.2903217	369.0858	0	1						2.276251	359.6274	1.818832	
373.263	0.3136678	369.1091	0	1						2.253878	359.6495	1.81348	
373.283	0.3339306	369.1294	0	1						2.23018	359.7009	1.812994	
373.308	0.3580771	369.1535	0	1						2.220974	359.726	1.805551	
373.328	0.3786906	369.1741	0	1						2.212064	359.7277	1.81187	
373.352	0.4028826	369.1983	0	1						2.196969	359.7462	1.809441	
373.374	0.4243598	369.2198	0	1						2.144758	359.7766	1.807877	
373.398	0.4473421	369.2428	0	1						2.111886	359.783	1.794359	
373.419	0.4696974	369.2651	0	1						2.079687	359.7837	1.784162	
373.440	0.4904654	369.2859	0	1						2.039912	359.8175	1.77102	
373.465	0.514892	369.3103	0	1						2.012803	359.8294	1.772909	
373.485	0.5350402	369.3305	0	1						1.966594	359.8586	1.765891	
373.507	0.5582461	369.3537	0	1						1.94275	359.8952	1.767161	
373.543	0.5938116	369.3893	0	1						1.864187	359.9655	1.762026	
373.562	0.612675	369.4081	0	1						1.658289	0.01334024	1.775138	
373.579	0.6301979	369.4256	0	1						1.592944	0.09763791	1.791202	
373.597	0.6478168	369.4432	0	1						1.495612	0.1866738	1.786236	
373.617	0.667654	369.4631	0	1						1.405373	0.2093362	1.806196	
373.635	0.6860532	369.4815	0	1						1.415957	0.2928046	1.821876	
373.654	0.705043	369.5005	0	1						1.388729	0.3196421	1.822212	
373.673	0.7241194	369.5196	0	1						1.347665	0.3894928	1.856267	
373.691	0.7416747	369.5371	0	1						1.317011	0.4817269	1.870378	
373.711	0.7612445	369.5567	0	1						1.296038	0.4736812	1.84551	
373.736	0.7858201	369.5813	0	1						1.264688	0.5137382	1.85548	
373.758	0.8078503	369.6033	0	1						1.21968	0.5529643	1.838196	
373.779	0.8290948	369.6245	0	1						1.213707	0.5713003	1.822264	
373.799	0.8495767	369.645	0	1						1.191546	0.6121388	1.79971	
373.820	0.8706197	369.666	0	1						1.121166	0.6192991	1.779692	
373.841	0.8904999	369.6859	0	1						1.06075	0.6606077	1.759962	
373.862	0.9123532	369.7078	0	1						1.007681	0.6729048	1.733964	
373.885	0.9357128	369.7311	0	1						0.9460394	0.7468443	1.701114	
373.906	0.956578	369.752	0	1						0.8700857	0.7716084	1.675806	
373.931	0.9809366	369.7764	0	1						0.7814062	0.8073741	1.655938	
373.950	1.000998	369.7964	0	1						0.7203599	0.8728395	1.631311	
373.976	1.026203	369.8216	0	1						0.6967956	0.8644367	1.62595	
373.995	1.045643	369.8411	0	1						0.6553577	0.8784051	1.623682	
374.018	1.068169	369.8636	0	1						0.6152387	0.8769179	1.608297	
374.040	1.090628	369.8861	0	1						0.5655754	0.877763	1.588658	
374.061	1.111776	369.9072	0	1						0.4954285	0.8633581	1.580017	
374.087	1.137166	369.9326	0	1						0.4770041	0.8548774	1.561544	
374.108	1.158168	369.9536	0	1						0.4433811	0.8547115	1.518785	
374.130	1.180205	369.9756	0	1						0.4006441	0.8859054	1.466915	
374.154	1.203906	369.9993	0	1						0.3297936	0.9104705	1.415022	
374.173	1.223132	370.0186	0	1						0.2835133	0.9336104	1.390532	
374.197	1.247122	370.0426	0	1						0.2945959	0.9416432	1.333779	
374.219	1.269383	370.0648	0	1						0.3305215	0.9421422	1.270993	
374.240	1.290968	370.0864	0	1						0.3811727	0.9113439	1.196221	
374.264	1.315079	370.1105	0	1						0.4299417	0.8442253	1.137268	
374.285	1.335373	370.1308	0	1						0.4364004	0.7325992	1.024578	
374.307	1.357865	370.1533	0	1						0.4912727	0.7042975	0.9744378	
374.330	1.380607	370.1761	0	1						0.5075763	0.6403092	0.9428322	
374.353	1.403556	370.199	0	1						0.5376264	0.5268469	0.8881274	
374.376	1.426284	370.2217	0	1						0.5494761	0.4049501	0.8259247	
374.398	1.448312	370.2437	0	1						0.540162	0.2917422	0.7764252	
374.417	1.467772	370.2632	0	1						0.5243125	0.2513186	0.729504	
374.442	1.492014	370.2874	0	1						0.4989679	0.1653771	0.6986741	
374.464	1.513857	370.3093	0	1						0.5012575	0.1202368	0.6169857	
374.503	1.5528	370.3482	0	1						0.467414	0.01408578	0.5567875	
374.522	1.571963	370.3674	0	1						0.4177183	359.9019	0.537084	
374.541	1.591063	370.3865	0	1						0.396076	359.8091	0.5455974	
374.561	1.610726	370.4062	0	1						0.3902871	359.7054	0.5191627	
374.580	1.63038	370.4258	0	1						0.3393315	359.5918	0.5033096	
374.600	1.650078	370.4455	0	1						0.3713045	359.4842	0.5025269	
374.619	1.669592	370.465	0	1						0.348713	359.3596	0.5295793	
374.638	1.688694	370.4841	0	1						0.3258886	359.2546	0.5341371	
374.659	1.709447	370.5049	0	1						0.325318	359.2059	0.5601441	
374.679	1.729476	370.5249	0	1						0.3255622	359.07	0.5515515	
374.697	1.747556	370.543	0	1						0.3146045	359.0426	0.5698439	
374.715	1.765751	370.5612	0	1						0.3129417	358.9909	0.5835346	
374.736	1.786506	370.5819	0	1						0.2841589	358.9128	0.5893867	
374.755	1.806217	370.6017	0	1						0.2581495	358.8403	0.5913892	
374.774	1.824708	370.6201	0	1						0.2407104	358.7867	0.5914854	
374.794	1.844723	370.6402	0	1						0.2399328	358.8102	0.5809304	
374.816	1.86683	370.6623	0	1						0.2337591	358.7943	0.537281	
374.839	1.889542	370.685	0	1						0.2427716	358.8151	0.495707	
374.859	1.90994	370.7054	0	1						0.3040841	358.8455	0.4233837	
374.885	1.934982	370.7304	0	1						0.4133682	358.92	0.2991231	
374.906	1.956048	370.7515	0	1						0.4263234	359.0394	0.175763	
374.928	1.978649	370.7741	0	1						0.5452219	359.0656	0.09771653	
374.952	2.002425	370.7979	0	1						0.5777222	359.0969	0.04414754	
374.975	2.024532	370.82	0	1						0.5786893	359.141	359.9778	
374.995	2.045692	370.8411	0	1						0.6439648	359.155	359.8658	
375.017	2.067514	370.8629	0	1						0.6911981	359.2001	359.7726	
375.038	2.089121	370.8846	0	1						0.6782974	359.2291	359.7238	
375.063	2.11374	370.9092	0	1						0.6875436	359.2013	359.6472	
375.084	2.13468	370.9301	0	1						0.6695834	359.1919	359.5677	
375.110	2.160532	370.956	0	1						0.7097043	359.1857	359.5299	
375.131	2.180969	370.9764	0	1						0.704865	359.1992	359.5	
375.153	2.203183	370.9986	0	1						0.7401625	359.2003	359.4565	
375.176	2.226958	371.0224	0	1						0.7568517	359.1812	359.4606	
375.197	2.247112	371.0425	0	1						0.7652324	359.1946	359.4381	
375.221	2.271472	371.0669	0	1						0.74366	359.1941	359.4368	
375.241	2.291111	371.0865	0	1						0.7297215	359.2034	359.4445	
375.263	2.313797	371.1092	0	1						0.6781043	359.1783	359.4534	
375.287	2.337457	371.1329	0	1						0.6044616	359.1685	359.4945	
375.307	2.357973	371.1534	0	1						0.5299058	359.1614	359.5375	
375.330	2.380564	371.176	0	1						0.389062	359.1512	359.59	
375.352	2.403218	371.1986	0	1						0.3202932	359.1235	359.6016	
375.375	2.424711	371.2202	0	1						0.211852	359.1618	359.6247	
375.417	2.465576	371.261	0	1						0.1098556	359.1724	359.6559	
375.436	2.485926	371.2814	0	1						0.03839751	359.2656	359.7054	
375.455	2.505694	371.3011	0	1						359.9782	359.3546	359.712	
375.473	2.524271	371.3197	0	1						359.9151	359.451	359.7254	
375.494	2.544642	371.3401	0	1						359.873	359.5476	359.7539	
375.515	2.56507	371.3605	0	1						359.8322	359.6515	359.8026	
375.532	2.583241	371.3787	0	1						359.8142	359.7458	359.8501	
375.552	2.602273	371.3977	0	1						359.776	359.7884	359.868	
375.574	2.624397	371.4198	0	1						359.7254	359.7992	359.9034	
375.598	2.647573	371.443	0	1						359.7128	359.8551	359.9707	
375.618	2.668094	371.4635	0	1						359.6719	359.909	0.09671852	
375.642	2.692335	371.4878	0	1						359.6525	359.8578	0.1589562	
375.662	2.713157	371.5086	0	1						359.6506	359.8377	0.2394904	
375.686	2.737019	371.5324	0	1						359.6306	359.7622	0.3175834	
375.705	2.756388	371.5518	0	1						359.6333	359.7509	0.3755006	
375.725	2.776185	371.5716	0	1						359.6677	359.7036	0.401069	
375.747	2.796365	371.5918	0	1						359.6867	359.6761	0.4327998	
375.764	2.81454	371.61	0	1						359.6914	359.6477	0.4560782	
375.784	2.834135	371.6296	0	1						359.7017	359.637	0.4696333	
375.802	2.852786	371.6482	0	1						359.7232	359.6032	0.486723	
375.820	2.870289	371.6657	0	1						359.7247	359.5781	0.4876647	
375.839	2.889647	371.6851	0	1						359.7361	359.5356	0.5018593	
375.860	2.91051	371.7059	0	1						359.7941	359.429	0.5509555	
375.880	2.930332	371.7258	0	1						359.7963	359.26	0.6037632	
375.900	2.930332	371.7441	1	2	90	0	0.3	0	-1.311342E-08	-0.005144741	0.03018538	-0.0007359905	
375.901	2.94871	371.7441	0	2						359.8138	359.1868	0.6108471	
375.919	2.969041	371.7645	0	2						359.8643	359.0458	0.6174065	
375.940	2.988708	371.7841	0	2						359.8981	358.9448	0.6540502	
375.959	3.008996	371.8044	0	2						359.9827	358.8678	0.6962169	
375.977	3.027003	371.8224	0	2						0.04289806	358.7822	0.7245068	
375.998	3.04807	371.8435	0	2						0.1381219	358.758	0.7340489	
376.025	3.07621	371.8716	0	2						0.2596897	358.6834	0.7609367	
376.050	3.099741	371.8952	0	2						0.3611429	358.654	0.7598402	
376.071	3.121659	371.9171	0	2						0.5051029	358.5891	0.7502162	
376.091	3.141755	371.9372	0	2						0.6800908	358.5088	0.743172	
376.110	3.160349	371.9558	0	2						0.8614166	358.4337	0.7409043	
376.130	3.179555	371.975	0	2						1.06884	358.216	0.8180547	
376.149	3.19988	371.9953	0	2						1.273629	358.0467	0.8807561	
376.177	3.227596	372.023	0	2						1.326095	357.8242	0.8487195	
376.195	3.244599	372.04	0	2						1.450014	357.6378	0.8298656	
376.213	3.264178	372.0596	0	2						1.4822	357.3834	0.8248171	
376.234	3.283707	372.0791	0	2						1.505646	357.1182	0.9413541	
376.257	3.306551	372.102	0	2						1.521263	356.8553	1.04759	
376.280	3.331006	372.1264	0	2						1.642717	356.6111	1.103057	
376.302	3.352392	372.1478	0	2						1.640072	356.3829	1.129833	
376.339	3.388744	372.1842	0	2						1.619109	356.149	1.174596	
376.357	3.407371	372.2028	0	2						1.537277	355.9195	1.163528	
376.376	3.427212	372.2227	0	2						1.467911	355.79	1.154931	
376.395	3.446505	372.2419	0	2						1.420246	355.7521	1.155667	
376.414	3.465183	372.2606	0	2						1.396811	355.898	1.136783	
376.432	3.482631	372.2781	0	2						1.36219	356.1767	1.054461	
376.457	3.507796	372.3032	0	2						1.287727	356.7337	0.9844922	
376.485	3.535468	372.3309	0	2						1.301675	357.4004	0.8412557	
376.504	3.554642	372.3501	0	2						1.386498	358.2778	0.7914806	
376.523	3.574029	372.3695	0	2						1.509765	359.2617	0.6884705	
376.549	3.598965	372.3944	0	2						1.566379	0.3932071	0.5077276	
376.571	3.621735	372.4172	0	2						1.67622	1.747982	0.3557423	
376.595	3.645061	372.4405	0	2						1.822683	3.21096	0.2110777	
376.616	3.666028	372.4615	0	2						1.932185	4.859188	359.9767	
376.638	3.688689	372.4841	0	2						2.119959	6.669156	359.8156	
376.662	3.712512	372.5079	0	2						2.319443	8.651851	359.6327	
376.683	3.733032	372.5285	0	2						2.644427	10.73199	359.3666	
376.707	3.75693	372.5524	0	2						2.934211	12.87519	359.1987	
376.728	3.779536	372.575	0	2						3.247554	15.06725	358.9817	
376.749	3.800249	372.5957	0	2						3.607231	17.3676	358.8512	
376.772	3.823093	372.6185	0	2						4.008005	19.62421	358.7636	
376.800	3.848855	372.6443	0	2						4.384866	21.8106	358.7003	
376.822	3.872311	372.6678	0	2						4.734584	23.97093	358.6697	
376.840	3.890505	372.6859	0	2						4.997467	26.02228	358.6526	
376.860	3.910383	372.7058	0	2						5.323035	28.06283	358.7695	
376.882	3.932503	372.7279	0	2						5.527282	29.97925	358.7841	
376.903	3.953914	372.7494	0	2						5.771904	31.81488	358.9024	
376.928	3.978599	372.774	0	2						5.93173	33.47923	359.0183	
376.955	4.004797	372.8002	0	2						6.1141	35.05865	359.1112	
376.977	4.026504	372.8219	0	2						6.235399	36.54061	359.1531	
376.995	4.046143	372.8416	0	2						6.362297	37.91532	359.2065	
377.016	4.067317	372.8628	0	2						6.46812	39.23371	359.3019	
377.038	4.088835	372.8843	0	2						6.601824	40.37126	359.3239	
377.061	4.111262	372.9067	0	2						6.762479	41.3942	359.3232	
377.083	4.13364	372.9291	0	2						6.939125	42.31493	359.3076	
377.108	4.158812	372.9543	0	2						7.027298	43.11341	359.3359	
377.127	4.178123	372.9735	0	2						7.061588	43.78316	359.3334	
377.152	4.201367	372.9968	0	2						7.056518	44.39375	359.2636	
377.172	4.222674	373.0181	0	2						6.900792	44.80076	359.2121	
377.198	4.247527	373.043	0	2						6.678214	45.09993	359.2162	
377.217	4.267293	373.0627	0	2						6.367921	45.18218	359.1732	
377.239	4.289608	373.0851	0	2						5.933802	45.18708	359.1604	
377.282	4.33218	373.1276	0	2						5.479372	45.09696	359.1175	
377.300	4.351371	373.1468	0	2						5.073248	45.01772	359.1412	
377.319	4.369534	373.165	0	2						4.69448	44.95834	359.1584	
377.338	4.388945	373.1844	0	2						4.311893	44.94239	359.2057	
377.357	4.407945	373.2034	0	2						4.013497	44.86479	359.2919	
377.378	4.427506	373.2229	0	2						3.725295	44.7896	359.3229	
377.397	4.447751	373.2432	0	2						3.423011	44.73705	359.3834	
377.417	4.467045	373.2625	0	2						3.170165	44.59681	359.4533	
377.436	4.486963	373.2824	0	2						2.802161	44.44899	359.5902	
377.462	4.512657	373.3081	0	2						2.249082	44.26947	359.7049	
377.485	4.53462	373.33	0	2						1.881332	44.07161	359.6871	
377.506	4.556982	373.3524	0	2						1.389922	44.02221	359.7419	
377.528	4.57889	373.3743	0	2						0.9443424	44.00473	359.7485	
377.553	4.603054	373.3985	0	2						0.7044022	44.17382	359.7033	
377.579	4.62907	373.4245	0	2						0.4723683	44.32469	359.6374	
377.599	4.649362	373.4448	0	2						0.3196217	44.54495	359.5927	
377.619	4.66861	373.4641	0	2						0.2883084	44.70575	359.4991	
377.637	4.688643	373.4841	0	2						0.1422116	44.90399	359.4474	
377.657	4.708073	373.5035	0	2						0.233945	44.86665	359.4482	
377.676	4.726733	373.5222	0	2						0.2833156	45.02639	359.3708	
377.694	4.745308	373.5407	0	2						0.3374604	44.99257	359.3353	
377.714	4.764637	373.5601	0	2						0.4434055	44.97431	359.3267	
377.737	4.787985	373.5834	0	2						0.527936	44.87709	359.3062	
377.760	4.787985	373.606	1	2	90	0	0.3	0	-1.311342E-08	0.02458073	0.06954043	-0.1797004	
377.760	4.810589	373.606	0	2						0.591728	44.75285	359.3119	
377.780	4.830577	373.626	0	2						0.7829295	44.45308	359.3381	
377.798	4.848385	373.6438	0	2						0.9409999	44.0603	359.392	
377.817	4.867354	373.6628	0	2						1.017312	43.83623	359.4283	
377.836	4.886371	373.6818	0	2						1.127122	43.42044	359.4539	
377.860	4.910463	373.7059	0	2						1.185808	42.975	359.5409	
377.883	4.933341	373.7288	0	2						1.244712	42.50397	359.604	
377.911	4.960908	373.7563	0	2						1.284443	41.92186	359.6789	
377.931	4.981627	373.7771	0	2						1.404902	41.3031	359.8085	
377.953	5.00338	373.7988	0	2						1.489993	40.56572	359.968	
377.973	5.022992	373.8184	0	2						1.532323	39.73225	0.06841728	
377.991	5.041357	373.8368	0	2						1.635574	38.80915	0.1784073	
378.014	5.064719	373.8601	0	2						1.64677	37.77405	0.2861103	
378.037	5.087916	373.8834	0	2						1.694058	36.57434	0.4208179	
378.060	5.110762	373.9062	0	2						1.781036	35.38447	0.5035368	
378.082	5.132751	373.9282	0	2						1.832506	34.20339	0.5289129	
378.104	5.154665	373.9501	0	2						1.836087	33.185	0.5259797	
378.127	5.177746	373.9732	0	2						1.878758	32.29072	0.5362516	
378.149	5.199909	373.9953	0	2						1.979854	31.60976	0.5227869	
378.191	5.223873	374.0193	0	2						2.057706	31.02384	0.5355001	
378.208	5.258182	374.0536	0	2						2.193334	30.57051	0.5104538	
378.227	5.276627	374.0721	0	2						2.221867	30.25488	0.452367	
378.243	5.293751	374.0892	0	2						2.266989	30.00528	0.4297764	
378.263	5.314402	374.1098	0	2						2.29254	29.80518	0.4055102	
378.283	5.333345	374.1288	0	2						2.31569	29.68946	0.35849	
378.305	5.355028	374.1505	0	2						2.300535	29.64653	0.290276	
378.325	5.374788	374.1702	0	2						2.289663	29.61087	0.2676127	
378.349	5.398692	374.1941	0	2						2.278064	29.52559	0.1913816	
378.371	5.42145	374.2169	0	2						2.278192	29.3991	0.07320392	
378.393	5.443572	374.239	0	2						2.237597	29.31573	359.981	
378.416	5.466608	374.2621	0	2						2.239588	29.22666	359.8726	
378.436	5.48746	374.2829	0	2						2.153973	28.99691	359.6871	
378.462	5.512285	374.3077	0	2						1.903314	28.81609	359.6169	
378.485	5.535261	374.3307	0	2						1.781811	28.63614	359.5161	
378.505	5.556145	374.3516	0	2						1.581676	28.40797	359.45	
378.528	5.578434	374.3739	0	2						1.495312	28.20519	359.3972	
378.550	5.600372	374.3958	0	2						1.461841	27.97912	359.3873	
378.573	5.623128	374.4185	0	2						1.413847	27.77726	359.3364	
378.597	5.646027	374.4415	0	2						1.458359	27.54219	359.3417	
378.618	5.668094	374.4635	0	2						1.410612	27.35595	359.3271	
378.641	5.690698	374.4861	0	2						1.423339	27.14607	359.3404	
378.663	5.713427	374.5089	0	2						1.386278	27.00418	359.3579	
378.686	5.736099	374.5315	0	2						1.388982	26.86353	359.3688	
378.707	5.758146	374.5536	0	2						1.388121	26.7599	359.3834	
378.731	5.781098	374.5765	0	2						1.417195	26.56142	359.4066	
378.751	5.802263	374.5977	0	2						1.435507	26.38247	359.4702	
378.769	5.82042	374.6158	0	2						1.457835	26.16193	359.5288	
378.787	5.837982	374.6334	0	2						1.47418	26.00936	359.5297	
378.805	5.855608	374.651	0	2						1.485631	25.86881	359.5635	
378.826	5.876699	374.6721	0	2						1.529608	25.55668	359.634	
378.847	5.898123	374.6935	0	2						1.59838	25.17473	359.7324	
378.868	5.919176	374.7146	0	2						1.607318	24.95845	359.7813	
378.886	5.936612	374.7321	0	2						1.669141	24.46993	359.8533	
378.907	5.957156	374.7526	0	2						1.710765	23.96734	359.9632	
378.927	5.977069	374.7725	0	2						1.783497	23.35931	0.06318276	
378.946	5.996217	374.7917	0	2						1.860296	22.16555	0.2283624	
378.964	6.014178	374.8096	0	2						1.841592	22.28072	0.2252955	
378.985	6.034895	374.8303	0	2						1.872695	21.48557	0.34873	
379.004	6.054411	374.8499	0	2						2.019735	19.7587	0.5572395	
379.022	6.072503	374.868	0	2						2.014904	19.6804	0.5709382	
379.043	6.092416	374.8878	0	2						2.071405	18.71952	0.6436591	
379.061	6.110972	374.9064	0	2						2.120132	17.71866	0.699032	
379.081	6.131791	374.9272	0	2						2.141692	16.70419	0.7912083	
379.117	6.167554	374.963	0	2						2.184983	15.69094	0.8130026	
379.135	6.1861	374.9815	0	2						2.217507	14.66181	0.8524942	
379.155	6.205451	375.0009	0	2						2.236702	13.66764	0.831468	
379.175	6.225807	375.0212	0	2						2.271958	12.73399	0.805322	
379.196	6.246788	375.0422	0	2						2.257438	11.83663	0.7772002	
379.215	6.265489	375.0609	0	2						2.259952	10.97077	0.7190059	
379.234	6.284745	375.0802	0	2						2.282414	10.16921	0.6670552	
379.258	6.309022	375.1045	0	2						2.265282	9.451605	0.6410068	
379.280	6.330271	375.1257	0	2						2.189971	8.842665	0.5918726	
379.304	6.353774	375.1492	0	2						2.137561	8.212195	0.5511715	
379.328	6.377454	375.1729	0	2						2.07178	7.593992	0.5222768	
379.349	6.398962	375.1944	0	2						2.112853	6.99032	0.4850745	
379.372	6.422455	375.2179	0	2						2.033072	6.36918	0.5518064	
379.395	6.445378	375.2408	0	2						1.957617	5.685504	0.5646579	
379.416	6.465991	375.2614	0	2						1.83034	5.069726	0.5759127	
379.441	6.490555	375.286	0	2						1.833991	4.552934	0.6016698	
379.460	6.511319	375.3068	0	2						1.79395	4.158662	0.6795083	
379.485	6.535332	375.3308	0	2						1.776415	3.786104	0.688547	
379.504	6.555068	375.3505	0	2						1.787432	3.521237	0.7397237	
379.529	6.578226	375.3737	0	2						1.814051	3.316036	0.8530842	
379.550	6.600946	375.3964	0	2						1.784849	3.258007	0.9095762	
379.573	6.623474	375.4189	0	2						1.765176	3.267365	1.01058	
379.597	6.647605	375.4431	0	2						1.75925	3.288223	1.044309	
379.617	6.667524	375.463	0	2						1.752858	3.427967	1.121034	
379.641	6.690751	375.4862	0	2						1.750847	3.580489	1.190321	
379.663	6.713017	375.5085	0	2						1.758752	3.741857	1.19534	
379.684	6.734297	375.5297	0	2						1.750975	3.96465	1.208302	
