Time	keytime	time-time	keypress	target id	target_lon	target_lat	target_x	target_y	target_z	hmd_rx	hmd_ry	hmd_rz	
285.680	0.01361421	281.7213	0	16						0.002761662	-0.01156153	-0.04178601	
285.690	0.02561618	281.7333	0	16						0.00320823	-0.01168516	-0.04233436	
285.698	0.03365054	281.7413	0	16						0.003425724	-0.01172113	-0.04256036	
285.709	0.04488332	281.7525	0	16						0.003656198	-0.01173596	-0.04277681	
285.720	0.05599166	281.7636	0	16						0.003780245	-0.01176931	-0.04291576	
285.731	0.06680765	281.7745	0	16						0.004119247	-0.01185658	-0.04316681	
285.742	0.07733564	281.785	0	16						0.004429591	-0.01187585	-0.04341392	
285.754	0.0895865	281.7972	0	16						0.004923437	-0.01196989	-0.04374508	
285.770	0.1059871	281.8137	0	16						0.005243969	-0.01196743	-0.04396406	
285.780	0.1156044	281.8233	0	16						0.005686612	-0.01198377	-0.04422827	
285.789	0.1247833	281.8325	0	16						0.006062262	-0.01199394	-0.04441296	
285.796	0.1320015	281.8397	0	16						0.00641194	-0.01200631	-0.04457346	
285.808	0.1437948	281.8514	0	16						0.006734273	-0.01206695	-0.04468484	
285.834	0.1702426	281.8779	0	16						0.007199224	-0.01208483	-0.04487291	
285.841	0.1776153	281.8853	0	16						0.007565241	-0.01206	-0.04504188	
285.852	0.1883526	281.896	0	16						0.007947199	-0.01206439	-0.04515535	
285.866	0.2013442	281.909	0	16						0.008770965	-0.01205618	-0.04537259	
285.875	0.2109055	281.9186	0	16						0.009155803	-0.01214103	-0.04546207	
285.886	0.2215508	281.9292	0	16						0.009587895	-0.01211576	-0.04557377	
285.898	0.2335812	281.9413	0	16						0.009928282	-0.0121659	-0.04558223	
285.909	0.2446161	281.9523	0	16						0.01037885	-0.01212637	-0.04565492	
285.923	0.2588245	281.9665	0	16						0.01075685	-0.01212167	-0.04567864	
285.933	0.2689376	281.9766	0	16						0.01117699	-0.01215368	-0.04568706	
285.944	0.278506	281.9862	0	16						0.01153045	-0.01214865	-0.04569788	
285.952	0.2881175	281.9958	0	16						0.01187262	-0.01212566	-0.04571231	
285.965	0.300955	282.0086	0	16						0.01222191	-0.01213299	-0.04570243	
285.976	0.3115608	282.0192	0	16						0.01258154	-0.0121247	-0.04571677	
285.987	0.3224756	282.0302	0	16						0.01291354	-0.01217779	-0.04568325	
285.997	0.3332623	282.0409	0	16						0.01324507	-0.01214618	-0.0457052	
286.010	0.3460912	282.0537	0	16						0.01361842	-0.01216674	-0.04570172	
286.019	0.3548971	282.0626	0	16						0.01390061	-0.01218697	-0.04566275	
286.032	0.3672258	282.0749	0	16						0.01420074	-0.01216926	-0.0456447	
286.043	0.3783396	282.086	0	16						0.01446594	-0.01216475	-0.04560449	
286.053	0.3887076	282.0964	0	16						0.014729	-0.01218647	-0.04559061	
286.065	0.4003955	282.1081	0	16						0.01497794	-0.01216026	-0.0455919	
286.080	0.4153439	282.123	0	16						0.01517228	-0.01216675	-0.04556813	
286.089	0.4250976	282.1328	0	16						0.01541795	-0.01211376	-0.04555408	
286.097	0.4333196	282.141	0	16						0.01561788	-0.01209232	-0.04554348	
286.109	0.4445606	282.1522	0	16						0.01577763	-0.01209019	-0.04553164	
286.120	0.4549496	282.1626	0	16						0.01596932	-0.01207848	-0.04550419	
286.131	0.4671767	282.1748	0	16						0.01607928	-0.01207303	-0.04548973	
286.142	0.4778774	282.1855	0	16						0.01627002	-0.01202223	-0.04548092	
286.154	0.4897075	282.1974	0	16						0.01630196	-0.01205463	-0.04547776	
286.166	0.501295	282.209	0	16						0.01653698	-0.01200188	-0.04543158	
286.176	0.5119605	282.2196	0	16						0.01664811	-0.01198062	-0.04538555	
286.187	0.5226418	282.2303	0	16						0.01679277	-0.01197354	-0.04527954	
286.199	0.5345031	282.2422	0	16						0.01691562	-0.01193525	-0.0452056	
286.223	0.5593236	282.267	0	16						0.01699902	-0.01187833	-0.04511915	
286.237	0.5727166	282.2804	0	16						0.01714136	-0.01182289	-0.04493039	
286.247	0.5822913	282.2899	0	16						0.01720306	-0.01178005	-0.04484258	
286.257	0.5927901	282.3004	0	16						0.01728102	-0.01175326	-0.04466346	
286.263	0.5991525	282.3068	0	16						0.01730372	-0.0117285	-0.044595	
286.275	0.6106278	282.3183	0	16						0.01734972	-0.01171173	-0.04446543	
286.285	0.6210594	282.3287	0	16						0.01736552	-0.01167575	-0.04438586	
286.299	0.6345966	282.3423	0	16						0.01738285	-0.01170751	-0.04427661	
286.308	0.64402	282.3517	0	16						0.01733917	-0.01170138	-0.04415026	
286.320	0.6555747	282.3633	0	16						0.0173499	-0.01169258	-0.04402069	
286.332	0.667809	282.3755	0	16						0.01730883	-0.01167861	-0.04392722	
286.342	0.6779814	282.3857	0	16						0.01726617	-0.01169747	-0.04381214	
286.353	0.6883028	282.396	0	16						0.01721289	-0.01171193	-0.04373046	
286.365	0.7009037	282.4086	0	16						0.01713954	-0.01172648	-0.0436394	
286.375	0.7111149	282.4188	0	16						0.01705895	-0.01176898	-0.04349653	
286.391	0.7267494	282.4344	0	16						0.01697241	-0.0117893	-0.04340865	
286.401	0.7364529	282.4441	0	16						0.01685805	-0.01184762	-0.04317807	
286.412	0.746075	282.4537	0	16						0.01676616	-0.01186765	-0.04312382	
286.420	0.7564237	282.4641	0	16						0.01670262	-0.01190631	-0.04304808	
286.432	0.76718	282.4749	0	16						0.01658498	-0.01198227	-0.04287819	
286.442	0.7775578	282.4852	0	16						0.01646074	-0.01206085	-0.04276526	
286.452	0.7880791	282.4957	0	16						0.01636389	-0.01214772	-0.04263199	
286.465	0.8011782	282.5089	0	16						0.01625234	-0.01227764	-0.04243581	
286.475	0.8111148	282.5188	0	16						0.0160635	-0.01240217	-0.04224996	
286.486	0.8215922	282.5293	0	16						0.01601296	-0.0125511	-0.04213945	
286.498	0.8331213	282.5408	0	16						0.01588685	-0.01267739	-0.04201804	
286.511	0.8463519	282.554	0	16						0.0157364	-0.01283711	-0.04187508	
286.520	0.8553534	282.563	0	16						0.01561224	-0.01297586	-0.04174409	
286.532	0.8672574	282.5749	0	16						0.01544257	-0.01313368	-0.04157008	
286.547	0.8828983	282.5905	0	16						0.01532761	-0.0132449	-0.04143769	
286.557	0.8923521	282.6	0	16						0.01514297	-0.01334718	-0.04128538	
286.564	0.8994201	282.6071	0	16						0.01499582	-0.01351976	-0.04108998	
286.576	0.9114628	282.6191	0	16						0.01482874	-0.01367866	-0.04090308	
286.586	0.9218494	282.6295	0	16						0.01463652	-0.01381407	-0.04076347	
286.598	0.9337198	282.6414	0	16						0.01446442	-0.01394879	-0.04060304	
286.609	0.9446033	282.6523	0	16						0.01422074	-0.01406552	-0.04040602	
286.631	0.9667943	282.6745	0	16						0.01402587	-0.01411032	-0.04023663	
286.643	0.9787801	282.6864	0	16						0.01382133	-0.01415451	-0.04009522	
286.654	0.9894562	282.6971	0	16						0.01342391	-0.01427974	-0.03974852	
286.665	1.000949	282.7086	0	16						0.0132356	-0.01429869	-0.03960292	
286.677	1.012515	282.7202	0	16						0.01302115	-0.01428908	-0.03944324	
286.688	1.023368	282.731	0	16						0.01283909	-0.01431261	-0.03930672	
286.704	1.03932	282.747	0	16						0.01266948	-0.01432106	-0.03916504	
286.713	1.048416	282.7561	0	16						0.01245744	-0.01430378	-0.03897311	
286.723	1.058865	282.7665	0	16						0.01231917	-0.01428828	-0.03884208	
286.731	1.066506	282.7742	0	16						0.01222065	-0.0142637	-0.03875778	
286.742	1.077532	282.7852	0	16						0.01214419	-0.01426211	-0.03869439	
286.753	1.088283	282.7959	0	16						0.01200983	-0.01424586	-0.03855389	
286.766	1.100848	282.8085	0	16						0.01186478	-0.01418933	-0.03838424	
286.776	1.112047	282.8197	0	16						0.01175887	-0.01413568	-0.03823654	
286.786	1.121907	282.8296	0	16						0.01166291	-0.01409934	-0.03812643	
286.800	1.134985	282.8427	0	16						0.01163954	-0.01404687	-0.03804807	
286.809	1.144956	282.8526	0	16						0.01154071	-0.01398962	-0.03788544	
286.820	1.155825	282.8635	0	16						0.01144674	-0.01393885	-0.03769196	
286.832	1.168372	282.876	0	16						0.01141691	-0.01391967	-0.0376598	
286.843	1.179028	282.8867	0	16						0.01137339	-0.01390798	-0.0375592	
286.858	1.193624	282.9013	0	16						0.01129238	-0.01386686	-0.03745462	
286.868	1.20326	282.9109	0	16						0.01122235	-0.01381088	-0.03731984	
286.877	1.212323	282.92	0	16						0.01117452	-0.01377003	-0.03721932	
286.886	1.221722	282.9294	0	16						0.01109933	-0.01370243	-0.03714672	
286.899	1.234201	282.9419	0	16						0.01106703	-0.01366066	-0.03708247	
286.910	1.244795	282.9525	0	16						0.01101296	-0.01358453	-0.03697063	
286.919	1.254919	282.9626	0	16						0.01094429	-0.01346531	-0.03690198	
286.931	1.26712	282.9748	0	16						0.01088675	-0.01337015	-0.03681183	
286.945	1.280731	282.9884	0	16						0.01090246	-0.01327436	-0.03676756	
286.954	1.290169	282.9978	0	16						0.01081215	-0.01312551	-0.03672845	
286.964	1.300347	283.008	0	16						0.01076957	-0.01305326	-0.03664299	
286.977	1.312978	283.0206	0	16						0.01076292	-0.01290451	-0.03663915	
286.986	1.321936	283.0296	0	16						0.0107135	-0.01273582	-0.03664944	
286.998	1.334199	283.0419	0	16						0.01066298	-0.01259591	-0.03668438	
287.014	1.349713	283.0574	0	16						0.01065611	-0.01255652	-0.03682841	
287.037	1.372123	283.0798	0	16						0.01063872	-0.01251594	-0.03709812	
287.047	1.382646	283.0903	0	16						0.01058257	-0.01243031	-0.03737933	
287.057	1.392678	283.1003	0	16						0.01049954	-0.01219739	-0.03780532	
287.063	1.398152	283.1058	0	16						0.01044859	-0.01202804	-0.0380371	
287.075	1.410571	283.1182	0	16						0.01044441	-0.01191115	-0.03819617	
287.085	1.420555	283.1282	0	16						0.01038463	-0.01166899	-0.03842931	
287.097	1.432433	283.1401	0	16						0.01028703	-0.01152286	-0.03855427	
287.108	1.443467	283.1511	0	16						0.01025319	-0.0113102	-0.03869532	
287.119	1.453868	283.1615	0	16						0.01020543	-0.01115034	-0.03878072	
287.131	1.466421	283.1741	0	16						0.0100895	-0.01087396	-0.03890547	
287.141	1.476914	283.1846	0	16						0.0100558	-0.01074107	-0.03898798	
287.153	1.489056	283.1967	0	16						0.01003349	-0.01056579	-0.03910039	
287.169	1.505403	283.2131	0	16						0.00998728	-0.01042376	-0.03919747	
287.178	1.51396	283.2216	0	16						0.009990409	-0.0102666	-0.03932555	
287.188	1.523587	283.2313	0	16						0.009981253	-0.01007304	-0.03945404	
287.197	1.533168	283.2408	0	16						0.009962499	-0.009934937	-0.03954445	
287.209	1.544752	283.2524	0	16						0.009985783	-0.009806574	-0.03965243	
287.219	1.554958	283.2626	0	16						0.009996723	-0.00962367	-0.0397943	
287.230	1.566003	283.2737	0	16						0.01006068	-0.009545644	-0.03988033	
287.242	1.57744	283.2851	0	16						0.01006227	-0.00935382	-0.03999772	
287.252	1.587899	283.2956	0	16						0.01014913	-0.009294788	-0.04007557	
287.265	1.600518	283.3082	0	16						0.01017049	-0.00916618	-0.04019153	
287.275	1.611189	283.3188	0	16						0.01024352	-0.009054892	-0.04025521	
287.285	1.621478	283.3291	0	16						0.01033771	-0.008973388	-0.04031902	
287.298	1.633874	283.3415	0	16						0.01042079	-0.008895357	-0.04039505	
287.309	1.644324	283.352	0	16						0.01048798	-0.008841802	-0.04046308	
287.323	1.659106	283.3668	0	16						0.01056959	-0.008818272	-0.04052417	
287.333	1.668789	283.3764	0	16						0.01061525	-0.008798743	-0.04059195	
287.343	1.678364	283.386	0	16						0.01070403	-0.008778568	-0.04065788	
287.353	1.688455	283.3961	0	16						0.01076914	-0.008738331	-0.04072643	
287.365	1.700348	283.408	0	16						0.01085351	-0.008789149	-0.04074427	
287.376	1.711375	283.419	0	16						0.01095358	-0.00877557	-0.04080976	
287.387	1.722547	283.4302	0	16						0.01106769	-0.008748257	-0.04087132	
287.399	1.734671	283.4423	0	16						0.01114988	-0.008799688	-0.04087595	
287.410	1.744817	283.4525	0	16						0.01122335	-0.008819737	-0.04092224	
287.433	1.768874	283.4765	0	16						0.01134499	-0.008848699	-0.04094054	
287.442	1.778153	283.4858	0	16						0.01140913	-0.008831975	-0.04091806	
287.454	1.790241	283.4979	0	16						0.01154308	-0.008852656	-0.04092303	
287.465	1.800782	283.5085	0	16						0.01160784	-0.008885633	-0.04091303	
287.480	1.815836	283.5235	0	16						0.01160922	-0.008918227	-0.04087657	
287.489	1.824468	283.5321	0	16						0.01164673	-0.00896962	-0.04081893	
287.498	1.833472	283.5411	0	16						0.0116732	-0.009002202	-0.04078977	
287.510	1.845211	283.5529	0	16						0.01170166	-0.009026997	-0.04076407	
287.520	1.855809	283.5635	0	16						0.01170715	-0.009092206	-0.0407147	
287.531	1.866754	283.5744	0	16						0.01170442	-0.009154078	-0.04066884	
287.542	1.878169	283.5858	0	16						0.01169915	-0.009239043	-0.04060551	
287.554	1.889524	283.5972	0	16						0.01164258	-0.009308544	-0.04053771	
287.564	1.900357	283.608	0	16						0.01160784	-0.009438136	-0.04042467	
287.576	1.911507	283.6192	0	16						0.01154634	-0.009548762	-0.04032461	
287.587	1.923166	283.6308	0	16						0.01146032	-0.009644608	-0.04021794	
287.598	1.933543	283.6412	0	16						0.01138675	-0.009754558	-0.04008497	
287.609	1.944554	283.6522	0	16						0.01132519	-0.009839432	-0.03997706	
287.620	1.956014	283.6637	0	16						0.01122948	-0.00988093	-0.03988825	
287.636	1.971538	283.6792	0	16						0.01117615	-0.009988835	-0.03977435	
287.645	1.980837	283.6885	0	16						0.01105345	-0.00999339	-0.03966778	
287.656	1.991299	283.6989	0	16						0.01097063	-0.01007398	-0.03953422	
287.665	2.000406	283.7081	0	16						0.01087421	-0.01008468	-0.03943332	
287.675	2.010967	283.7186	0	16						0.01080642	-0.01017107	-0.03930554	
287.686	2.021946	283.7296	0	16						0.0106935	-0.01023658	-0.03917689	
287.700	2.034651	283.7423	0	16						0.01059375	-0.01024566	-0.03909356	
287.709	2.04452	283.7522	0	16						0.01048678	-0.01032883	-0.03891819	
287.720	2.055227	283.7629	0	16						0.01039146	-0.01033289	-0.03879005	
287.733	2.068627	283.7763	0	16						0.01034473	-0.01036331	-0.03868561	
287.742	2.078152	283.7858	0	16						0.01029014	-0.01036795	-0.03855069	
287.753	2.088845	283.7965	0	16						0.01025292	-0.01040161	-0.03844433	
287.766	2.101935	283.8096	0	16						0.01022055	-0.01040078	-0.03835964	
287.776	2.111901	283.8195	0	16						0.01019417	-0.01045602	-0.03818261	
287.790	2.12614	283.8338	0	16						0.01017357	-0.01044754	-0.03812436	
287.815	2.150918	283.8586	0	16						0.01014753	-0.01045829	-0.03797695	
287.825	2.16111	283.8688	0	16						0.01010647	-0.01052156	-0.03766244	
287.834	2.169177	283.8768	0	16						0.01008348	-0.01055716	-0.03751047	
287.844	2.179485	283.8871	0	16						0.01008028	-0.01061528	-0.03738281	
287.852	2.18697	283.8946	0	16						0.01008867	-0.01062994	-0.03728808	
287.864	2.199155	283.9068	0	16						0.01009244	-0.01067681	-0.03715368	
287.873	2.20808	283.9157	0	16						0.0100754	-0.01072896	-0.03697208	
287.885	2.220467	283.9281	0	16						0.01004595	-0.01076782	-0.03685444	
287.896	2.2311	283.9388	0	16						0.01003053	-0.01080699	-0.03670195	
287.907	2.243104	283.9508	0	16						0.01001341	-0.01085853	-0.03656103	
287.918	2.253555	283.9612	0	16						0.009961441	-0.01090702	-0.03640105	
287.930	2.265777	283.9734	0	16						0.009911411	-0.0109718	-0.03623622	
287.947	2.282342	283.99	0	16						0.00984833	-0.01104268	-0.03610025	
287.956	2.292097	283.9998	0	16						0.0097077	-0.01114245	-0.03582709	
287.962	2.29832	284.006	0	16						0.009662967	-0.01116174	-0.03574033	
287.975	2.309745	284.0174	0	16						0.00959656	-0.01121024	-0.03564255	
287.984	2.320272	284.0279	0	16						0.009476427	-0.01130338	-0.03546479	
287.996	2.331597	284.0392	0	16						0.009317897	-0.01139003	-0.03530095	
288.009	2.345392	284.053	0	16						0.009255986	-0.01150769	-0.03513173	
288.018	2.354195	284.0619	0	16						0.009062409	-0.0116113	-0.03489571	
288.030	2.365117	284.0728	0	16						0.008958861	-0.01167591	-0.03475199	
288.041	2.376975	284.0846	0	16						0.008810986	-0.01175052	-0.03456901	
288.052	2.387836	284.0955	0	16						0.008696143	-0.01181562	-0.03439558	
288.064	2.399447	284.1071	0	16						0.008568641	-0.01182643	-0.03424652	
288.074	2.409892	284.1176	0	16						0.008395705	-0.01189687	-0.03406297	
288.085	2.420838	284.1285	0	16						0.008284267	-0.01197804	-0.03391302	
288.102	2.43785	284.1455	0	16						0.008112367	-0.01201857	-0.03376101	
288.113	2.448588	284.1563	0	16						0.007971228	-0.01211474	-0.03358184	
288.124	2.460276	284.1679	0	16						0.007853151	-0.01216914	-0.03346463	
288.129	2.464924	284.1726	0	16						0.007750989	-0.01222704	-0.03336243	
288.140	2.476039	284.1837	0	16						0.007730655	-0.01226462	-0.03331953	
288.152	2.488	284.1956	0	16						0.007668599	-0.01229962	-0.03324552	
288.163	2.499245	284.2069	0	16						0.007530447	-0.01239183	-0.03309757	
288.173	2.509549	284.2172	0	16						0.007432766	-0.0124961	-0.03295753	
288.186	2.521826	284.2295	0	16						0.007370133	-0.01254886	-0.03286599	
288.198	2.53323	284.2409	0	16						0.007301133	-0.01257697	-0.03277578	
288.222	2.557283	284.265	0	16						0.007205259	-0.01268235	-0.03264659	
288.232	2.566183	284.2738	0	16						0.007043718	-0.01276248	-0.03244304	
288.241	2.576518	284.2842	0	16						0.007015318	-0.01278134	-0.0323698	
288.255	2.590801	284.2985	0	16						0.006966513	-0.01281672	-0.0322554	
288.263	2.597814	284.3055	0	16						0.006889913	-0.01285746	-0.03212151	
288.274	2.61024	284.3179	0	16						0.006867915	-0.01286169	-0.03208463	
288.285	2.620358	284.328	0	16						0.006826151	-0.01288866	-0.03196678	
288.297	2.632343	284.34	0	16						0.006788973	-0.01288898	-0.0318993	
288.307	2.643263	284.3509	0	16						0.006744161	-0.01289821	-0.03177091	
288.318	2.653795	284.3615	0	16						0.006707047	-0.01289754	-0.03167703	
288.330	2.6661	284.3737	0	16						0.006705686	-0.01290998	-0.03161592	
288.341	2.676488	284.3842	0	16						0.006694383	-0.0129135	-0.03152603	
288.352	2.687166	284.3948	0	16						0.006671954	-0.01291272	-0.0314391	
288.363	2.698576	284.4063	0	16						0.006671563	-0.01290826	-0.03134856	
288.375	2.710045	284.4177	0	16						0.006672337	-0.01290826	-0.03125772	
288.385	2.720726	284.4284	0	16						0.006682114	-0.01290582	-0.03116079	
288.397	2.732588	284.4402	0	16						0.006682403	-0.01289225	-0.03111116	
288.412	2.747802	284.4555	0	16						0.00667143	-0.01288746	-0.03103418	
288.421	2.757178	284.4648	0	16						0.00670388	-0.01288935	-0.03089619	
288.431	2.766633	284.4743	0	16						0.006697546	-0.01288395	-0.03081959	
288.443	2.77855	284.4862	0	16						0.0066902	-0.0128783	-0.03073036	
288.451	2.787006	284.4947	0	16						0.006677506	-0.01286852	-0.03062059	
288.463	2.798618	284.5063	0	16						0.006664477	-0.01286226	-0.0305696	
288.475	2.810609	284.5183	0	16						0.006634072	-0.01283845	-0.03047004	
288.485	2.820714	284.5284	0	16						0.006608471	-0.01283963	-0.03039651	
288.497	2.832706	284.5404	0	16						0.006584112	-0.01284634	-0.03034112	
288.508	2.843889	284.5515	0	16						0.006548319	-0.01284474	-0.03028902	
288.521	2.855552	284.5632	0	16						0.006550409	-0.0129237	-0.03026901	
288.530	2.865949	284.5736	0	16						0.006517369	-0.01304593	-0.03024526	
288.541	2.876873	284.5845	0	16						0.006500074	-0.01315133	-0.03023272	
288.553	2.888103	284.5958	0	16						0.006452199	-0.01324556	-0.03020596	
288.569	2.904733	284.6124	0	16						0.006380066	-0.01334739	-0.03014228	
288.579	2.914606	284.6223	0	16						0.00627558	-0.01338392	-0.03002095	
288.590	2.925571	284.6332	0	16						0.006203689	-0.01342021	-0.02992731	
288.596	2.931784	284.6394	0	16						0.006110735	-0.01346637	-0.02982671	
288.607	2.943252	284.6509	0	16						0.006074961	-0.01351551	-0.02973941	
288.619	2.954698	284.6624	0	16						0.005987354	-0.01364618	-0.02956642	
288.642	2.977909	284.6856	0	16						0.005875707	-0.01375747	-0.02944398	
288.652	2.987796	284.6955	0	16						0.005703475	-0.01398962	-0.02920684	
288.663	2.998914	284.7066	0	16						0.005662953	-0.01414568	-0.02903831	
288.674	3.010046	284.7177	0	16						0.005569909	-0.01421972	-0.02888504	
288.685	3.020674	284.7283	0	16						0.005495269	-0.01428912	-0.02879195	
288.698	3.033404	284.7411	0	16						0.005415644	-0.01436365	-0.02865049	
288.709	3.04444	284.7521	0	16						0.005347062	-0.01445346	-0.02852527	
288.722	3.05787	284.7655	0	16						0.005264457	-0.01449866	-0.02844842	
288.733	3.068365	284.776	0	16						0.005198536	-0.0145693	-0.02831079	
288.741	3.07743	284.7851	0	16						0.005095892	-0.01464893	-0.02822074	
288.752	3.087934	284.7956	0	16						0.004984376	-0.01471601	-0.02811521	
288.765	3.100171	284.8078	0	16						0.004954357	-0.01476932	-0.02807548	
288.775	3.110462	284.8181	0	16						0.004857223	-0.01480711	-0.02800446	
288.785	3.121107	284.8288	0	16						0.004780031	-0.0148367	-0.02797314	
288.798	3.133542	284.8412	0	16						0.004683889	-0.01487311	-0.02789064	
