Time	keytime	time-time	keypress	target id	target_lon	target_lat	target_x	target_y	target_z	hmd_rx	hmd_ry	hmd_rz	
166.611	0.01310142	162.6364	0	1						0.006653954	-0.02510217	0.01044982	
166.621	0.02431563	162.6476	0	1						0.006699927	-0.02519923	0.01070119	
166.631	0.03394644	162.6573	0	1						0.006700614	-0.0252527	0.01078973	
166.641	0.04462297	162.6679	0	1						0.006744053	-0.02531221	0.01093098	
166.654	0.05718632	162.6805	0	1						0.00678495	-0.0253783	0.0111165	
166.664	0.06716359	162.6905	0	1						0.006853003	-0.02543423	0.01131368	
166.674	0.0773388	162.7007	0	1						0.006865908	-0.02546056	0.01141929	
166.686	0.08940674	162.7127	0	1						0.006910119	-0.02549678	0.01156859	
166.700	0.1023904	162.7257	0	1						0.00698052	-0.02554523	0.01176929	
166.709	0.1125443	162.7359	0	1						0.007068705	-0.02559237	0.01200682	
166.724	0.1271067	162.7504	0	1						0.007163759	-0.02559367	0.01217871	
166.736	0.1391707	162.7625	0	1						0.007209074	-0.0256458	0.01228694	
166.746	0.1488801	162.7722	0	1						0.007307686	-0.02566625	0.01247943	
166.752	0.1551355	162.7784	0	1						0.0073523	-0.02569663	0.01258561	
166.764	0.1664765	162.7898	0	1						0.007450725	-0.02569998	0.01275144	
166.774	0.1772787	162.8006	0	1						0.007511783	-0.0257346	0.01291496	
166.785	0.1879351	162.8112	0	1						0.007596001	-0.02575558	0.01311036	
166.797	0.2005596	162.8239	0	1						0.007666435	-0.02578402	0.01323202	
166.807	0.2102497	162.8336	0	1						0.0077793	-0.0258197	0.01350434	
166.819	0.2220865	162.8454	0	1						0.007870429	-0.02584481	0.01367444	
166.830	0.2333561	162.8567	0	1						0.007932849	-0.02589309	0.01377143	
166.841	0.2445292	162.8678	0	1						0.008039963	-0.02595516	0.01398953	
166.867	0.2703085	162.8936	0	1						0.008143217	-0.02602591	0.01420441	
166.881	0.2838228	162.9071	0	1						0.008338206	-0.02617252	0.01462229	
166.887	0.2894481	162.9128	0	1						0.008423239	-0.02627952	0.01490196	
166.898	0.3009783	162.9243	0	1						0.008455615	-0.0263248	0.01499438	
166.910	0.3133386	162.9366	0	1						0.008525953	-0.02643379	0.01521316	
166.919	0.3227849	162.9461	0	1						0.008561864	-0.02655386	0.01542547	
166.930	0.3332635	162.9566	0	1						0.008570705	-0.02666851	0.01564745	
166.942	0.3447883	162.9681	0	1						0.00860858	-0.02675011	0.01584499	
166.952	0.3556434	162.979	0	1						0.008607838	-0.02684985	0.01605996	
166.963	0.3666202	162.9899	0	1						0.008576185	-0.02692687	0.01621621	
166.974	0.3773066	163.0006	0	1						0.008578885	-0.02701892	0.01643845	
166.988	0.390005	163.0133	0	1						0.008573622	-0.02708853	0.01661285	
166.997	0.4000337	163.0233	0	1						0.008544702	-0.02716508	0.0168808	
167.008	0.4114253	163.0347	0	1						0.008525793	-0.02723966	0.01698229	
167.021	0.4238918	163.0472	0	1						0.008496009	-0.02731027	0.01719053	
167.037	0.4402039	163.0635	0	1						0.00844605	-0.02740526	0.01744055	
167.046	0.4495301	163.0728	0	1						0.008347608	-0.02750173	0.01787954	
167.054	0.4569632	163.0803	0	1						0.00829592	-0.02753615	0.01805376	
167.063	0.4666857	163.09	0	1						0.008255463	-0.02757147	0.01821111	
167.074	0.4771564	163.1005	0	1						0.008204006	-0.02761271	0.01841139	
167.087	0.4906086	163.1139	0	1						0.00810736	-0.02766	0.0186244	
167.097	0.500083	163.1234	0	1						0.007986042	-0.02773776	0.01887655	
167.107	0.5108606	163.1342	0	1						0.007934362	-0.02775695	0.01899443	
167.119	0.5222459	163.1456	0	1						0.007783697	-0.02778659	0.01922844	
167.131	0.5341033	163.1574	0	1						0.007705569	-0.02783654	0.01939235	
167.142	0.5453455	163.1687	0	1						0.007539853	-0.02788254	0.01964481	
167.152	0.5553774	163.1787	0	1						0.007355243	-0.02793923	0.01991515	
167.165	0.5684903	163.1918	0	1						0.007228495	-0.02796765	0.02010476	
167.175	0.5783067	163.2016	0	1						0.007059146	-0.02801622	0.02028624	
167.191	0.5941641	163.2175	0	1						0.006896716	-0.02804753	0.02050749	
167.202	0.6051531	163.2285	0	1						0.006718516	-0.02809049	0.02066837	
167.212	0.6148021	163.2381	0	1						0.006585483	-0.02810647	0.02079208	
167.218	0.6213621	163.2447	0	1						0.006405145	-0.02814291	0.02100089	
167.231	0.633558	163.2569	0	1						0.006328892	-0.02815517	0.0210756	
167.240	0.644043	163.2674	0	1						0.006150164	-0.02821066	0.02124617	
167.252	0.6552256	163.2785	0	1						0.006032064	-0.02827057	0.02132358	
167.279	0.6675696	163.2909	0	1						0.005881265	-0.02831949	0.02142997	
167.289	0.6920232	163.3153	0	1						0.005757045	-0.02836993	0.02152985	
167.298	0.7012628	163.3246	0	1						0.005521554	-0.02845954	0.02171649	
167.309	0.7115719	163.3349	0	1						0.005414691	-0.02849163	0.02181449	
167.319	0.7221165	163.3454	0	1						0.00533646	-0.02853188	0.02188368	
167.330	0.7331482	163.3565	0	1						0.005237826	-0.02855198	0.02194705	
167.346	0.749019	163.3723	0	1						0.005169738	-0.02859634	0.0220101	
167.355	0.7582682	163.3816	0	1						0.00510922	-0.02865136	0.02208086	
167.367	0.7700888	163.3934	0	1						0.005066253	-0.02868427	0.02211337	
167.377	0.7804449	163.4038	0	1						0.005018931	-0.02869621	0.0221252	
167.384	0.7876635	163.411	0	1						0.004985726	-0.0287047	0.02215211	
167.397	0.7999578	163.4233	0	1						0.004968447	-0.02871733	0.02215814	
167.408	0.8111258	163.4344	0	1						0.004960056	-0.02873533	0.02218967	
167.421	0.8238025	163.4471	0	1						0.004952918	-0.02876271	0.0221983	
167.429	0.8328921	163.4562	0	1						0.004957799	-0.02877361	0.02219703	
167.441	0.8440577	163.4674	0	1						0.005004153	-0.0287673	0.02218767	
167.454	0.8561031	163.4794	0	1						0.005014327	-0.02874246	0.0221656	
167.465	0.8671818	163.4905	0	1						0.005060263	-0.02872613	0.0221297	
167.475	0.8783395	163.5016	0	1						0.005139362	-0.02865037	0.02206722	
167.486	0.8895972	163.5129	0	1						0.00520815	-0.02857435	0.02198724	
167.503	0.9060451	163.5294	0	1						0.005306207	-0.02850469	0.02191816	
167.512	0.9157056	163.539	0	1						0.005448706	-0.02833329	0.02177557	
167.521	0.923687	163.547	0	1						0.005555514	-0.02823209	0.02167783	
167.530	0.9330424	163.5564	0	1						0.005662159	-0.02816163	0.02159242	
167.541	0.9444873	163.5678	0	1						0.005732916	-0.02806339	0.0214914	
167.553	0.9567078	163.58	0	1						0.00589029	-0.02794924	0.02134825	
167.564	0.9672622	163.5906	0	1						0.005932391	-0.02784134	0.02123812	
167.574	0.9777124	163.601	0	1						0.006023363	-0.02778487	0.02113876	
167.585	0.9887899	163.6121	0	1						0.006150316	-0.02771509	0.02101081	
167.597	1.000123	163.6234	0	1						0.006201807	-0.0276358	0.02090309	
167.608	1.011282	163.6346	0	1						0.006275669	-0.02761211	0.02081642	
167.620	1.022896	163.6462	0	1						0.006366876	-0.02755688	0.02069565	
167.632	1.035285	163.6586	0	1						0.006454818	-0.02752198	0.02058116	
167.642	1.045565	163.6689	0	1						0.006560723	-0.02747362	0.02045074	
167.657	1.059872	163.6832	0	1						0.00662161	-0.02744163	0.0203692	
167.684	1.087116	163.7104	0	1						0.006745048	-0.02735769	0.02020211	
167.693	1.096682	163.72	0	1						0.006877989	-0.02735323	0.01996594	
167.699	1.102183	163.7255	0	1						0.006943371	-0.0273396	0.01985446	
167.710	1.112398	163.7357	0	1						0.006966058	-0.02733116	0.01981298	
167.720	1.123275	163.7466	0	1						0.0070545	-0.02731766	0.01967262	
167.731	1.134708	163.758	0	1						0.007104624	-0.02730556	0.01957054	
167.744	1.147176	163.7705	0	1						0.007135775	-0.02730157	0.01947285	
167.753	1.15646	163.7798	0	1						0.00721606	-0.02729487	0.01931156	
167.765	1.168025	163.7913	0	1						0.007238924	-0.02730378	0.01922646	
167.777	1.179521	163.8028	0	1						0.007273991	-0.02730711	0.01911733	
167.786	1.189517	163.8128	0	1						0.007346459	-0.02730513	0.01895392	
167.798	1.201171	163.8245	0	1						0.007340804	-0.02729348	0.01888385	
167.813	1.216515	163.8398	0	1						0.007359758	-0.0272706	0.0187694	
167.821	1.223494	163.8468	0	1						0.007417556	-0.02725213	0.01858386	
167.832	1.235045	163.8584	0	1						0.007421837	-0.02722782	0.0185265	
167.842	1.245181	163.8685	0	1						0.007426099	-0.02720022	0.01840675	
167.853	1.255839	163.8792	0	1						0.007461042	-0.02711861	0.01828404	
167.864	1.266933	163.8902	0	1						0.00750963	-0.02703881	0.01813346	
167.874	1.277711	163.901	0	1						0.007519168	-0.02689027	0.0180249	
167.888	1.289899	163.9132	0	1						0.007489015	-0.02675353	0.01792282	
167.897	1.300497	163.9238	0	1						0.007535886	-0.02654156	0.01779727	
167.909	1.312376	163.9357	0	1						0.00759424	-0.02634033	0.01773133	
167.920	1.323789	163.9471	0	1						0.007562831	-0.02606259	0.01766833	
167.931	1.334383	163.9577	0	1						0.007584012	-0.02579353	0.01757263	
167.942	1.345059	163.9684	0	1						0.007539087	-0.02552553	0.0174799	
167.954	1.357168	163.9805	0	1						0.007565781	-0.0252416	0.01737073	
167.970	1.372829	163.9961	0	1						0.00749635	-0.02494691	0.0172554	
167.979	1.382546	164.0059	0	1						0.007484846	-0.02465214	0.01710437	
167.987	1.390459	164.0138	0	1						0.00747488	-0.02432751	0.01695253	
167.997	1.400375	164.0237	0	1						0.007470008	-0.02401439	0.0168197	
168.008	1.411378	164.0347	0	1						0.007457796	-0.02372993	0.01667479	
168.020	1.422862	164.0462	0	1						0.007425815	-0.02340635	0.01646406	
168.032	1.434114	164.0574	0	1						0.007425615	-0.02316119	0.01628196	
168.042	1.445122	164.0684	0	1						0.007447109	-0.02287728	0.016072	
168.052	1.455581	164.0789	0	1						0.007399644	-0.02257521	0.01583415	
168.078	1.480315	164.1036	0	1						0.007387384	-0.02230887	0.01560693	
168.089	1.491824	164.1151	0	1						0.007328358	-0.02200948	0.01529366	
168.099	1.50221	164.1255	0	1						0.007259812	-0.02146332	0.01481709	
168.108	1.511487	164.1348	0	1						0.007180069	-0.0211708	0.01457612	
168.124	1.526804	164.1501	0	1						0.007140759	-0.02083823	0.01434937	
168.133	1.536533	164.1599	0	1						0.007000513	-0.02047387	0.01410675	
168.141	1.544822	164.1681	0	1						0.006901279	-0.02009512	0.01383104	
168.152	1.555687	164.179	0	1						0.006808322	-0.01976868	0.01356726	
168.164	1.567248	164.1906	0	1						0.006692556	-0.01943058	0.01326303	
168.176	1.578423	164.2017	0	1						0.006534491	-0.01904675	0.01295426	
168.186	1.589107	164.2124	0	1						0.006342663	-0.0186478	0.01264927	
168.197	1.600024	164.2233	0	1						0.006190501	-0.01823619	0.01230691	
168.210	1.611346	164.2347	0	1						0.00600415	-0.01786521	0.01195627	
168.220	1.622864	164.2462	0	1						0.005803499	-0.0175273	0.01154852	
168.231	1.634153	164.2575	0	1						0.005616091	-0.01712075	0.01109106	
168.243	1.646372	164.2697	0	1						0.005411439	-0.0167546	0.01066273	
168.253	1.656053	164.2794	0	1						0.005207135	-0.01637395	0.01019071	
168.264	1.667355	164.2907	0	1						0.004989109	-0.01599252	0.009756662	
168.280	1.683251	164.3066	0	1						0.004814841	-0.01560999	0.009278391	
168.286	1.689506	164.3128	0	1						0.004537214	-0.01525714	0.008745168	
168.297	1.700274	164.3236	0	1						0.004349649	-0.01484005	0.008207159	
168.308	1.711743	164.3351	0	1						0.004061961	-0.01444584	0.007664293	
168.320	1.722898	164.3462	0	1						0.00382036	-0.01410869	0.007105422	
168.331	1.734643	164.358	0	1						0.003522194	-0.01374279	0.006465739	
168.342	1.745265	164.3686	0	1						0.00325283	-0.01350255	0.00586191	
168.354	1.756633	164.3799	0	1						0.002951413	-0.01322174	0.005259611	
168.365	1.768165	164.3915	0	1						0.002621585	-0.0129386	0.004669932	
168.376	1.778532	164.4018	0	1						0.002301595	-0.01261023	0.004074334	
168.388	1.790876	164.4142	0	1						0.002047881	-0.01240011	0.00352377	
168.398	1.801089	164.4244	0	1						0.001720384	-0.01216955	0.002947695	
168.410	1.813096	164.4364	0	1						0.001457065	-0.01189445	0.002342619	
168.420	1.823555	164.4469	0	1						0.001167263	-0.01170442	0.001778442	
168.437	1.840463	164.4638	0	1						0.0008701757	-0.01154233	0.00121498	
168.446	1.849273	164.4726	0	1						0.0006161258	-0.01137132	0.0006541215	
168.473	1.87632	164.4996	0	1						0.0003690571	-0.01118918	8.391715E-05	
168.483	1.886311	164.5096	0	1						9.30056E-05	-0.01105403	-0.0004309427	
168.494	1.896982	164.5203	0	1						-0.0004233792	-0.0108002	-0.001545013	
168.506	1.909412	164.5327	0	1						-0.0006576031	-0.01068705	-0.002084007	
168.518	1.920926	164.5442	0	1						-0.001145511	-0.01046538	-0.003176613	
168.531	1.9321	164.5554	0	1						-0.001314414	-0.01038901	-0.003540828	
168.540	1.943106	164.5664	0	1						-0.001501054	-0.01035164	-0.003996543	
168.551	1.954542	164.5779	0	1						-0.001682737	-0.01028839	-0.004358468	
168.564	1.966923	164.5902	0	1						-0.001873649	-0.01020488	-0.004849979	
168.574	1.976987	164.6003	0	1						-0.002060324	-0.01013644	-0.005274564	
168.590	1.993393	164.6167	0	1						-0.002212335	-0.0100728	-0.005635716	
168.600	2.003156	164.6265	0	1						-0.002413649	-0.01005074	-0.006137704	
168.611	2.013258	164.6366	0	1						-0.002527587	-0.01001768	-0.006384569	
168.618	2.021642	164.645	0	1						-0.002653838	-0.01000701	-0.006676507	
168.630	2.033328	164.6566	0	1						-0.00277083	-0.009981296	-0.006996052	
168.642	2.04389	164.6672	0	1						-0.002884797	-0.009962828	-0.007261725	
168.652	2.055348	164.6787	0	1						-0.003018892	-0.009922845	-0.007608202	
168.663	2.066397	164.6897	0	1						-0.003207871	-0.009894786	-0.008143644	
168.675	2.077613	164.7009	0	1						-0.003353335	-0.009857783	-0.008503603	
168.686	2.089173	164.7125	0	1						-0.00344767	-0.009815211	-0.00877209	
168.697	2.100053	164.7234	0	1						-0.003574544	-0.009769907	-0.009070653	
168.709	2.11175	164.7351	0	1						-0.003677696	-0.009727264	-0.009372241	
168.719	2.12217	164.7455	0	1						-0.00380249	-0.009662248	-0.009716707	
168.730	2.133727	164.757	0	1						-0.003909908	-0.009629448	-0.01014961	
168.747	2.150149	164.7735	0	1						-0.003991876	-0.00956807	-0.01038407	
168.758	2.160983	164.7843	0	1						-0.004096336	-0.009455768	-0.01081351	
168.764	2.166953	164.7903	0	1						-0.004188015	-0.009306222	-0.01120709	
168.774	2.177746	164.8011	0	1						-0.00424659	-0.009278012	-0.01132171	
168.785	2.188904	164.8122	0	1						-0.004318524	-0.009197739	-0.01170883	
168.798	2.201401	164.8247	0	1						-0.004399896	-0.009133953	-0.0119619	
168.808	2.211276	164.8346	0	1						-0.004486796	-0.009033682	-0.01225919	
168.820	2.223205	164.8465	0	1						-0.00454172	-0.00891691	-0.01247796	
168.831	2.234349	164.8577	0	1						-0.004640465	-0.008779491	-0.01272764	
168.842	2.244878	164.8682	0	1						-0.004692973	-0.00865707	-0.01294273	
168.864	2.26696	164.8903	0	1						-0.004745733	-0.008623889	-0.01306287	
168.875	2.278309	164.9016	0	1						-0.004747127	-0.008491505	-0.01321393	
168.886	2.289256	164.9126	0	1						-0.004818353	-0.008411788	-0.01358975	
168.903	2.305886	164.9292	0	1						-0.004789192	-0.008313624	-0.0137572	
168.912	2.315089	164.9384	0	1						-0.004757411	-0.008246141	-0.01383209	
168.920	2.322809	164.9461	0	1						-0.004698206	-0.008187331	-0.01388353	
168.931	2.33398	164.9573	0	1						-0.004664435	-0.008175115	-0.01399207	
168.942	2.345282	164.9686	0	1						-0.004639894	-0.008141436	-0.01401583	
168.954	2.356981	164.9803	0	1						-0.004574452	-0.008117041	-0.01410546	
168.966	2.368641	164.992	0	1						-0.004496965	-0.008103316	-0.01423274	
168.977	2.380115	165.0034	0	1						-0.004406497	-0.008085467	-0.01444518	
168.986	2.389374	165.0127	0	1						-0.004320719	-0.008067414	-0.0145325	
168.999	2.402178	165.0255	0	1						-0.004238933	-0.008070838	-0.01461395	
169.009	2.411829	165.0351	0	1						-0.004136789	-0.008055241	-0.01465552	
169.020	2.423707	165.047	0	1						-0.004063111	-0.008051333	-0.01476743	
169.031	2.434648	165.058	0	1						-0.003971665	-0.008056981	-0.01479442	
169.042	2.445204	165.0685	0	1						-0.003880911	-0.008070176	-0.01480045	
169.056	2.459467	165.0828	0	1						-0.003810058	-0.008090906	-0.01483084	
169.067	2.470172	165.0935	0	1						-0.00370355	-0.008118313	-0.0148534	
169.077	2.479587	165.1029	0	1						-0.003637325	-0.00813766	-0.0148321	
169.086	2.489211	165.1125	0	1						-0.003567549	-0.008184426	-0.01484781	
169.098	2.500653	165.124	0	1						-0.003512219	-0.008187408	-0.01477481	
169.111	2.513852	165.1372	0	1						-0.003416635	-0.008234309	-0.01473937	
169.120	2.522879	165.1462	0	1						-0.003371482	-0.008278462	-0.01465801	
169.131	2.534139	165.1575	0	1						-0.003314226	-0.00829694	-0.01458826	
169.144	2.546916	165.1702	0	1						-0.003252909	-0.008337312	-0.01448841	
169.152	2.555634	165.179	0	1						-0.00316866	-0.00839653	-0.01432811	
169.165	2.568097	165.1914	0	1						-0.003111738	-0.008444397	-0.01421592	
169.175	2.578729	165.202	0	1						-0.003037948	-0.008504109	-0.01403551	
169.186	2.589721	165.213	0	1						-0.002950244	-0.008555357	-0.01388012	
169.197	2.600755	165.2241	0	1						-0.002834556	-0.008623323	-0.01367949	
169.213	2.616005	165.2393	0	1						-0.002746648	-0.008675963	-0.01347718	
169.221	2.623021	165.2463	0	1						-0.002568805	-0.008786899	-0.01319511	
169.233	2.635642	165.259	0	1						-0.002499066	-0.008845257	-0.01305814	
169.242	2.644872	165.2682	0	1						-0.002351757	-0.00894197	-0.0128162	
169.267	2.655771	165.2791	0	1						-0.002171777	-0.009029818	-0.01255411	
169.277	2.68006	165.3034	0	1						-0.002116092	-0.009110224	-0.01239338	
169.286	2.689444	165.3128	0	1						-0.001869202	-0.009243347	-0.01204205	
169.298	2.700842	165.3242	0	1						-0.001583097	-0.009489523	-0.01166073	
169.310	2.712417	165.3357	0	1						-0.001453721	-0.009604418	-0.01140638	
169.320	2.72315	165.3465	0	1						-0.001272277	-0.009697987	-0.01120261	
169.331	2.734332	165.3577	0	1						-0.00110944	-0.009789287	-0.0109382	
169.343	2.745469	165.3688	0	1						-0.0009747744	-0.009871122	-0.01074337	
169.354	2.756813	165.3801	0	1						-0.0008847006	-0.009910742	-0.01054818	
169.370	2.773292	165.3966	0	1						-0.0007242076	-0.01002298	-0.01024315	
169.380	2.782864	165.4062	0	1						-0.0004791059	-0.01016684	-0.009906911	
169.387	2.790214	165.4135	0	1						-0.0003009625	-0.01026095	-0.009668041	
169.398	2.800717	165.424	0	1						-0.0002430156	-0.01031515	-0.009490809	
169.408	2.811558	165.4349	0	1						-5.878881E-05	-0.01042041	-0.009234581	
169.419	2.822306	165.4456	0	1						6.398931E-05	-0.0104912	-0.009078911	
169.432	2.83584	165.4592	0	1						0.0002825744	-0.01057924	-0.008776329	
169.442	2.845339	165.4687	0	1						0.0003908873	-0.01064232	-0.00856314	
169.452	2.855891	165.4792	0	1						0.0004834831	-0.01071361	-0.008398259	
169.466	2.868627	165.4919	0	1						0.0006425083	-0.01083346	-0.00816459	
169.476	2.879063	165.5024	0	1						0.0008294135	-0.01093215	-0.007963813	
169.488	2.89075	165.5141	0	1						0.0009328537	-0.01106604	-0.007744681	
169.500	2.902381	165.5257	0	1						0.001036864	-0.01113649	-0.007541598	
169.509	2.912467	165.5358	0	1						0.001112998	-0.01117336	-0.007311675	
169.524	2.926795	165.5501	0	1						0.001151818	-0.01122099	-0.007132812	
169.533	2.936519	165.5598	0	1						0.001207426	-0.01124749	-0.006914417	
169.545	2.946912	165.5702	0	1						0.001230314	-0.01130725	-0.00674708	
169.553	2.955916	165.5792	0	1						0.00123138	-0.0113922	-0.006555237	
169.565	2.967685	165.591	0	1						0.00122973	-0.01143993	-0.006416828	
169.577	2.978713	165.602	0	1						0.001207043	-0.01147407	-0.006239252	
169.586	2.989235	165.6125	0	1						0.00113377	-0.01150447	-0.006048595	
169.598	3.000981	165.6243	0	1						0.001081898	-0.0115456	-0.005890229	
169.610	3.012464	165.6358	0	1						0.0008475631	-0.01159906	-0.005588307	
169.619	3.02287	165.6462	0	1						0.0006453469	-0.01166947	-0.005326543	
169.631	3.034152	165.6575	0	1						0.0004638024	-0.01163925	-0.005161815	
169.643	3.046936	165.6703	0	1						0.0002921708	-0.01164257	-0.004995439	
169.653	3.05636	165.6797	0	1						0.0001128465	-0.01161969	-0.00485329	
169.665	3.067782	165.6911	0	1						-0.0001016632	-0.01154088	-0.004746461	
169.697	3.099683	165.723	0	1						-0.0002877899	-0.01151877	-0.004619774	
169.707	3.109939	165.7332	0	1						-0.0003298111	-0.011412	-0.004522049	
169.717	3.119771	165.7431	0	1						-0.0004555285	-0.01136743	-0.004436512	
169.729	3.131723	165.755	0	1						-0.0006262474	-0.01128217	-0.004330008	
169.735	3.137659	165.761	0	1						-0.0007182285	-0.01124455	-0.004255055	
169.743	3.146491	165.7698	0	1						-0.0007118396	-0.01121634	-0.004240347	
169.753	3.155984	165.7793	0	1						-0.0006799847	-0.01116141	-0.004216346	
