Time	keytime	time-time	keypress	target id	target_lon	target_lat	target_x	target_y	target_z	hmd_rx	hmd_ry	hmd_rz	
159.310	0.03693987	155.1485	0	5						2.078928	0.8338735	356.1317	
159.330	0.05908783	155.1706	0	5						2.080967	0.8770083	356.1264	
159.348	0.07739855	155.1889	0	5						2.084337	0.8976611	356.128	
159.367	0.09501752	155.2065	0	5						2.076616	0.9120845	356.1265	
159.384	0.1129435	155.2245	0	5						2.066494	0.9278047	356.1294	
159.400	0.129256	155.2408	0	5						2.054974	0.9454644	356.1271	
159.418	0.1477018	155.2592	0	5						2.044239	0.9734765	356.1143	
159.436	0.1650616	155.2766	0	5						2.025876	0.9807608	356.117	
159.455	0.1833802	155.2949	0	5						2.018608	0.997741	356.1194	
159.473	0.2021089	155.3136	0	5						2.02208	1.014528	356.1109	
159.494	0.2232021	155.3347	0	5						2.000718	1.031489	356.1054	
159.515	0.2440542	155.3556	0	5						1.965924	1.072809	356.094	
159.538	0.2667363	155.3783	0	5						1.975731	1.075182	356.0782	
159.561	0.2895721	155.4011	0	5						1.969175	1.073708	356.0672	
159.581	0.3098139	155.4213	0	5						1.954482	1.082471	356.0623	
159.603	0.3321767	155.4437	0	5						1.927356	1.073852	356.0636	
159.623	0.3529199	155.4644	0	5						1.913711	1.076693	356.0654	
159.648	0.3774208	155.489	0	5						1.886247	1.076535	356.0649	
159.668	0.3967208	155.5083	0	5						1.874927	1.078515	356.0673	
159.694	0.4219032	155.5334	0	5						1.879324	1.080379	356.0643	
159.717	0.4455239	155.5571	0	5						1.86548	1.08433	356.0698	
159.737	0.4651886	155.5767	0	5						1.842326	1.097663	356.0716	
159.759	0.4880224	155.5995	0	5						1.823612	1.109341	356.0818	
159.782	0.5104354	155.622	0	5						1.821474	1.108598	356.0842	
159.805	0.5333691	155.6449	0	5						1.81378	1.105891	356.0876	
159.835	0.5644289	155.676	0	5						1.803621	1.098932	356.0889	
159.856	0.5852676	155.6968	0	5						1.798886	1.083302	356.0916	
159.872	0.6015279	155.7131	0	5						1.789948	1.071545	356.0948	
159.890	0.6191849	155.7307	0	5						1.785124	1.060165	356.1075	
159.912	0.6413071	155.7528	0	5						1.795194	1.033546	356.102	
159.933	0.6624975	155.774	0	5						1.797529	1.006986	356.1037	
159.957	0.68591	155.7974	0	5						1.809527	0.9823923	356.1073	
159.983	0.7113911	155.8229	0	5						1.825016	0.9536768	356.1029	
160.003	0.7318723	155.8434	0	5						1.863258	0.9271287	356.0894	
160.028	0.756515	155.868	0	5						1.878986	0.9194309	356.084	
160.048	0.7768896	155.8884	0	5						1.893904	0.9086691	356.0642	
160.072	0.8004005	155.9119	0	5						1.9006	0.9266796	356.0621	
160.091	0.8201761	155.9317	0	5						1.895469	0.9448923	356.059	
160.116	0.8440122	155.9556	0	5						1.898036	0.9492704	356.0605	
160.137	0.8660835	155.9776	0	5						1.894218	0.9643061	356.0662	
160.160	0.8894123	156.0009	0	5						1.895841	0.973173	356.0658	
160.181	0.9103458	156.0219	0	5						1.895455	0.9848687	356.0567	
160.205	0.9340705	156.0456	0	5						1.884141	0.9990223	356.0397	
160.226	0.9556977	156.0672	0	5						1.884625	1.007855	356.0405	
160.248	0.9775617	156.0891	0	5						1.901425	0.9868062	356.0329	
160.270	0.9995773	156.1111	0	5						1.907151	0.9766771	356.0276	
160.292	1.020679	156.1322	0	5						1.918352	0.9634572	356.022	
160.315	1.043743	156.1553	0	5						1.926802	0.9466171	356.0109	
160.336	1.064789	156.1763	0	5						1.938985	0.9383925	356.008	
160.360	1.089218	156.2007	0	5						1.938642	0.9449515	356.0045	
160.381	1.109932	156.2215	0	5						1.927724	0.9417148	356.0034	
160.414	1.142249	156.2538	0	5						1.927737	0.9470063	356.007	
160.433	1.162123	156.2737	0	5						1.937421	0.9520288	356.0101	
160.449	1.178112	156.2896	0	5						1.949245	0.9532056	356.0143	
160.469	1.19751	156.309	0	5						1.950237	0.9614031	356.0194	
160.486	1.215243	156.3268	0	5						1.961867	0.9644841	356.0242	
160.505	1.233523	156.3451	0	5						1.96403	0.9857102	356.0339	
160.524	1.252166	156.3637	0	5						1.954355	0.9972489	356.0362	
160.542	1.270647	156.3822	0	5						1.932218	0.9879482	356.0374	
160.559	1.288935	156.4005	0	5						1.929768	0.9976946	356.0457	
160.581	1.310549	156.4221	0	5						1.928396	1.00064	356.0497	
160.600	1.329891	156.4414	0	5						1.923254	1.006234	356.0667	
160.624	1.353205	156.4647	0	5						1.917566	1.000637	356.0836	
160.645	1.374836	156.4864	0	5						1.902186	0.9976456	356.104	
160.670	1.398597	156.5101	0	5						1.894091	0.9889296	356.1173	
160.692	1.421507	156.533	0	5						1.907528	0.9833008	356.1322	
160.715	1.443737	156.5553	0	5						1.917567	0.9819681	356.1518	
160.736	1.464754	156.5763	0	5						1.938927	0.9886863	356.161	
160.759	1.487504	156.599	0	5						1.955712	1.00668	356.1714	
160.781	1.509906	156.6214	0	5						1.95484	1.032921	356.1948	
160.803	1.531965	156.6435	0	5						1.941345	1.0495	356.199	
160.827	1.555605	156.6671	0	5						1.901419	1.060861	356.2074	
160.849	1.577759	156.6893	0	5						1.883003	1.06658	356.2272	
160.871	1.600156	156.7117	0	5						1.854026	1.059867	356.2381	
160.895	1.623323	156.7348	0	5						1.855789	1.064449	356.229	
160.916	1.645017	156.7565	0	5						1.820673	1.05271	356.2344	
160.940	1.668896	156.7804	0	5						1.810826	1.055222	356.2406	
160.972	1.700393	156.8119	0	5						1.819357	1.043638	356.2455	
160.990	1.719077	156.8306	0	5						1.807379	1.039554	356.2508	
161.007	1.736317	156.8479	0	5						1.814652	1.042449	356.2591	
161.025	1.754178	156.8657	0	5						1.810852	1.050339	356.2667	
161.046	1.775966	156.8875	0	5						1.809736	1.053413	356.2696	
161.068	1.797563	156.9091	0	5						1.799705	1.065085	356.2742	
161.092	1.819869	156.9314	0	5						1.801838	1.074118	356.2776	
161.117	1.845442	156.957	0	5						1.790979	1.079468	356.2776	
161.137	1.866171	156.9777	0	5						1.786719	1.081697	356.2722	
161.160	1.888703	157.0002	0	5						1.788034	1.085159	356.2688	
161.182	1.910954	157.0225	0	5						1.786939	1.085849	356.271	
161.204	1.933933	157.0455	0	5						1.793581	1.079821	356.2598	
161.227	1.955838	157.0674	0	5						1.796875	1.067796	356.2494	
161.247	1.976271	157.0878	0	5						1.795502	1.059837	356.2368	
161.271	2.000462	157.112	0	5						1.796858	1.060943	356.2317	
161.294	2.000462	157.1332	1	1	60	0	-0.2598076	0	0.15	0.0149058	-0.007088071	0.06470954	
161.294	2.021677	157.1332	0	1						1.798311	1.064735	356.2204	
161.317	2.046015	157.1575	0	1						1.803013	1.089262	356.214	
161.340	2.068798	157.1803	0	1						1.772155	1.130991	356.1927	
161.363	2.092302	157.2038	0	1						1.783789	1.14816	356.1963	
161.382	2.111438	157.223	0	1						1.774466	1.157165	356.1902	
161.407	2.135719	157.2473	0	1						1.767932	1.169688	356.1736	
161.426	2.155239	157.2668	0	1						1.74091	1.194262	356.1499	
161.452	2.180175	157.2917	0	1						1.733448	1.188916	356.147	
161.473	2.201568	157.3131	0	1						1.727643	1.189493	356.1334	
161.495	2.224129	157.3357	0	1						1.706409	1.200129	356.1331	
161.515	2.244081	157.3556	0	1						1.702783	1.215759	356.1332	
161.545	2.273246	157.3848	0	1						1.706082	1.231587	356.1333	
161.563	2.290748	157.4023	0	1						1.68819	1.2608	356.1377	
161.581	2.3101	157.4216	0	1						1.68173	1.321773	356.1453	
161.598	2.327617	157.4391	0	1						1.662871	1.391173	356.1678	
161.615	2.344391	157.4559	0	1						1.670201	1.458051	356.1673	
161.634	2.36312	157.4747	0	1						1.67179	1.540396	356.1825	
161.651	2.380487	157.492	0	1						1.671296	1.634468	356.2025	
161.670	2.399093	157.5106	0	1						1.658767	1.657115	356.2259	
161.691	2.420434	157.532	0	1						1.670594	1.666538	356.2231	
161.713	2.44235	157.5539	0	1						1.67462	1.633072	356.2267	
161.735	2.464604	157.5761	0	1						1.685553	1.377999	356.2284	
161.758	2.487114	157.5986	0	1						1.700832	0.8461782	356.2609	
161.782	2.510926	157.6225	0	1						1.696097	0.08693011	356.3453	
161.805	2.533422	157.645	0	1						1.715484	358.9209	356.4682	
161.825	2.554305	157.6658	0	1						1.643614	357.3151	356.6014	
161.850	2.577853	157.6894	0	1						1.575179	355.2047	356.7474	
161.870	2.598558	157.7101	0	1						1.495838	352.5787	356.847	
161.893	2.62215	157.7337	0	1						1.453819	349.8024	356.9963	
161.916	2.644202	157.7557	0	1						1.390807	346.6924	357.1084	
161.938	2.666189	157.7777	0	1						1.424347	343.4293	357.316	
161.959	2.688165	157.7997	0	1						1.496827	339.9674	357.4034	
161.981	2.71022	157.8217	0	1						1.568748	336.5937	357.502	
162.003	2.732826	157.8444	0	1						1.639188	333.4264	357.5031	
162.027	2.756094	157.8676	0	1						1.755376	330.3712	357.4646	
162.049	2.77833	157.8899	0	1						1.948831	327.6636	357.3933	
162.072	2.800523	157.912	0	1						2.055339	325.419	357.2394	
162.095	2.823955	157.9355	0	1						2.165017	323.7116	357.0952	
162.128	2.856537	157.9681	0	1						2.301636	322.4095	356.9097	
162.147	2.876497	157.988	0	1						2.447296	321.7993	356.8169	
162.168	2.895863	158.0074	0	1						2.481685	321.318	356.6894	
162.185	2.914209	158.0257	0	1						2.448587	321.1936	356.5592	
162.204	2.932752	158.0443	0	1						2.39554	321.262	356.5595	
162.222	2.950747	158.0623	0	1						2.24262	321.5375	356.5706	
162.244	2.972679	158.0842	0	1						2.129336	321.9885	356.5488	
162.269	2.997393	158.1089	0	1						1.885725	322.557	356.7191	
162.291	3.01977	158.1313	0	1						1.566994	323.1885	356.8856	
162.313	3.041886	158.1534	0	1						1.394446	323.7871	356.9171	
162.336	3.065144	158.1767	0	1						1.162224	324.5231	356.9606	
162.360	3.088894	158.2004	0	1						1.050552	325.1574	356.9569	
162.380	3.109215	158.2207	0	1						0.938687	325.7325	356.8613	
162.403	3.132059	158.2436	0	1						0.8859092	326.3053	356.8097	
162.426	3.155203	158.2667	0	1						0.9228177	326.7967	356.7829	
162.449	3.177802	158.2893	0	1						0.9664811	327.3901	356.6689	
162.470	3.198663	158.3102	0	1						0.9969881	327.7799	356.5717	
162.494	3.222798	158.3343	0	1						1.001629	328.069	356.4807	
162.516	3.244562	158.3561	0	1						0.9838966	328.4119	356.385	
162.539	3.268786	158.3803	0	1						0.9465694	328.83	356.2744	
162.560	3.28972	158.4012	0	1						0.8789171	329.15	356.24	
162.584	3.313963	158.4255	0	1						0.7778152	329.4214	356.2612	
162.605	3.33403	158.4456	0	1						0.6768523	329.6203	356.2894	
162.626	3.355557	158.4671	0	1						0.5304618	329.847	356.3871	
162.653	3.38112	158.4926	0	1						0.3814135	330.0056	356.4408	
162.674	3.401836	158.5134	0	1						0.2453007	330.0648	356.5047	
162.707	3.435801	158.5473	0	1						0.1538584	330.1338	356.6174	
162.724	3.453387	158.5649	0	1						0.07300653	330.1041	356.7177	
162.743	3.471766	158.5833	0	1						359.9342	330.1089	356.8063	
162.764	3.492944	158.6045	0	1						359.903	330.0819	356.9178	
162.781	3.510083	158.6216	0	1						359.7926	330.0252	356.9382	
162.797	3.526098	158.6376	0	1						359.7171	330.0169	356.9776	
162.812	3.541427	158.653	0	1						359.6966	330.0306	356.9763	
162.832	3.560875	158.6724	0	1						359.5598	330.02	356.9634	
162.850	3.579482	158.691	0	1						359.5143	330.0535	356.9408	
162.866	3.595784	158.7073	0	1						359.3242	330.1401	356.8476	
162.884	3.613471	158.725	0	1						359.223	330.1508	356.7502	
162.903	3.632013	158.7435	0	1						359.1637	330.2278	356.643	
162.924	3.653136	158.7647	0	1						359.103	330.3404	356.546	
162.946	3.674482	158.786	0	1						359.1349	330.5023	356.4641	
162.964	3.692783	158.8043	0	1						359.1209	330.5911	356.4371	
162.988	3.715946	158.8275	0	1						359.1486	330.7868	356.3181	
163.008	3.736455	158.848	0	1						359.1247	330.9546	356.2525	
163.028	3.756313	158.8678	0	1						359.1794	331.1304	356.2119	
163.048	3.777645	158.8892	0	1						359.2048	331.2869	356.2289	
163.073	3.801947	158.9135	0	1						359.2255	331.4779	356.2656	
163.092	3.821172	158.9327	0	1						359.2569	331.6701	356.3005	
163.118	3.846991	158.9585	0	1						359.1698	331.7931	356.3879	
163.136	3.865184	158.9767	0	1						359.2026	331.9335	356.5093	
163.161	3.889626	159.0012	0	1						359.206	332.0235	356.6007	
163.182	3.910829	159.0224	0	1						359.1637	332.1432	356.7115	
163.204	3.932731	159.0443	0	1						359.1724	332.2367	356.7915	
163.236	3.964912	159.0764	0	1						359.1547	332.3401	356.8889	
163.255	3.984181	159.0957	0	1						359.1691	332.53	356.8879	
163.273	4.00206	159.1136	0	1						359.1942	332.6443	356.8936	
163.290	4.019444	159.131	0	1						359.2045	332.7328	356.9155	
163.312	4.040627	159.1522	0	1						359.2241	332.8178	356.8865	
163.334	4.062395	159.1739	0	1						359.2527	333.0233	356.8572	
163.358	4.086797	159.1983	0	1						359.2644	333.173	356.8231	
163.380	4.108568	159.2201	0	1						359.3148	333.3074	356.7813	
163.403	4.108568	159.2421	1	1	60	0	-0.2598076	0	0.15	0.018987	-0.002248828	0.03809798	
163.403	4.130603	159.2421	0	1						359.356	333.5141	356.7672	
163.425	4.154306	159.2658	0	1						359.3601	333.716	356.7279	
163.448	4.177128	159.2887	0	1						359.3727	333.9826	356.7022	
163.470	4.198828	159.3104	0	1						359.3393	334.2555	356.6349	
163.491	4.220163	159.3317	0	1						359.3172	334.702	356.5683	
163.514	4.243761	159.3553	0	1						359.2957	335.2575	356.4579	
163.536	4.265204	159.3767	0	1						359.2753	335.9319	356.405	
163.560	4.289162	159.4007	0	1						359.2513	336.7702	356.2754	
163.581	4.310071	159.4216	0	1						359.1742	337.7947	356.1302	
163.605	4.333476	159.445	0	1						359.1212	338.8678	355.9518	
163.626	4.355514	159.467	0	1						359.1495	340.0717	355.7544	
163.646	4.375079	159.4866	0	1						359.1707	341.3888	355.5351	
163.670	4.397783	159.5093	0	1						359.2402	342.7465	355.3361	
163.691	4.42	159.5315	0	1						359.3291	344.1781	355.215	
163.716	4.444618	159.5562	0	1						359.3325	345.5182	355.0542	
163.740	4.468225	159.5798	0	1						359.2762	347.0531	354.9173	
163.760	4.488687	159.6002	0	1						359.171	348.5156	354.7256	
163.784	4.512436	159.624	0	1						359.0509	349.9851	354.5551	
163.814	4.543998	159.6555	0	1						358.9753	351.351	354.3593	
163.833	4.562256	159.6738	0	1						358.9193	352.6003	354.2349	
163.850	4.579688	159.6912	0	1						358.8864	353.768	354.0818	
163.870	4.598676	159.7102	0	1						358.8555	354.8447	353.9939	
163.891	4.620146	159.7317	0	1						358.8207	355.7597	353.9839	
163.913	4.641755	159.7533	0	1						358.7287	356.4722	353.9472	
163.937	4.66573	159.7773	0	1						358.5689	357.0832	353.9756	
163.959	4.68795	159.7995	0	1						358.4337	357.5775	354.0598	
163.981	4.709697	159.8212	0	1						358.2263	358.0264	354.0235	
164.004	4.733631	159.8452	0	1						358.0533	358.3368	354.1703	
164.027	4.75608	159.8676	0	1						357.9185	358.5801	354.2091	
164.048	4.776592	159.8881	0	1						357.8164	358.7148	354.2686	
164.070	4.798759	159.9103	0	1						357.875	358.9023	354.4252	
164.092	4.821125	159.9327	0	1						357.9183	359.0447	354.5421	
164.114	4.843783	159.9553	0	1						358.0665	359.1942	354.6547	
164.139	4.867969	159.9795	0	1						358.1421	359.321	354.8251	
164.162	4.890918	160.0025	0	1						358.2993	359.4626	354.9513	
164.184	4.913238	160.0248	0	1						358.4248	359.5823	355.1067	
164.206	4.934511	160.0461	0	1						358.5459	359.7262	355.26	
164.227	4.955984	160.0675	0	1						358.639	359.8813	355.4433	
164.253	4.980698	160.0922	0	1						358.633	359.985	355.6049	
164.272	5.001034	160.1126	0	1						358.728	0.06077366	355.7514	
164.294	5.022963	160.1345	0	1						358.9513	0.08828306	355.9323	
164.318	5.046209	160.1577	0	1						359.1463	0.08179109	356.0927	
164.337	5.06557	160.1771	0	1						359.3894	359.9895	356.1721	
164.369	5.097951	160.2095	0	1						359.536	359.9782	356.3244	
164.388	5.116301	160.2278	0	1						359.5699	0.007349459	356.4185	
164.404	5.133725	160.2453	0	1						359.6274	359.9807	356.4915	
164.421	5.150391	160.2619	0	1						359.5797	0.03750587	356.5378	
164.441	5.170571	160.2821	0	1						359.6095	0.08632468	356.5598	
164.458	5.187605	160.2991	0	1						359.6059	0.07579212	356.5953	
164.477	5.206909	160.3184	0	1						359.6021	0.08598085	356.6481	
164.495	5.224499	160.336	0	1						359.5838	0.08736901	356.7076	
164.514	5.243015	160.3546	0	1						359.5811	0.08644358	356.7086	
164.536	5.26476	160.3763	0	1						359.5844	0.1089604	356.7895	
164.557	5.286266	160.3978	0	1						359.5357	0.07841622	356.8195	
164.580	5.308329	160.4199	0	1						359.4816	0.09320246	356.8329	
164.606	5.308329	160.4446	1	0	30	0	-0.15	0	0.2598076	0.02021269	-0.00181387	0.05437239	
164.606	5.33306	160.4446	0	0						359.4631	0.07835696	356.8684	
164.625	5.353625	160.4652	0	0						359.4234	0.06356394	356.9129	
164.649	5.378073	160.4896	0	0						359.4134	0.05917383	356.9227	
164.670	5.399122	160.5107	0	0						359.4281	0.04928431	356.9628	
164.695	5.42336	160.5349	0	0						359.459	0.01430237	356.968	
164.716	5.444227	160.5558	0	0						359.5024	359.9463	357.0373	
164.738	5.466715	160.5782	0	0						359.5435	359.8932	357.0948	
164.759	5.487985	160.5995	0	0						359.6349	359.7591	357.1238	
164.781	5.510156	160.6217	0	0						359.6951	359.6147	357.1138	
164.805	5.534587	160.6461	0	0						359.8256	359.3552	357.1711	
164.826	5.555292	160.6668	0	0						359.9689	359.0132	357.1909	
164.847	5.576018	160.6875	0	0						0.08938538	358.579	357.2544	
164.872	5.600041	160.7116	0	0						0.2291795	357.9869	357.2374	
164.890	5.619236	160.7308	0	0						0.3165667	357.3778	357.28	
164.923	5.651753	160.7633	0	0						0.4065392	356.6796	357.3193	
164.940	5.66894	160.7805	0	0						0.4243249	355.7412	357.4051	
164.959	5.687994	160.7995	0	0						0.4385541	354.9243	357.4846	
164.978	5.706472	160.818	0	0						0.4896704	354.0264	357.5301	
165.002	5.730565	160.8421	0	0						0.4137751	353.0965	357.5571	
165.023	5.752299	160.8638	0	0						0.4600496	352.2245	357.6276	
165.048	5.776483	160.888	0	0						0.4521123	351.3927	357.6959	
165.069	5.797206	160.9087	0	0						0.4981564	350.6337	357.6479	
165.094	5.822037	160.9336	0	0						0.5200198	350.0201	357.5533	
165.114	5.842766	160.9543	0	0						0.6016094	349.5572	357.3914	
165.136	5.864927	160.9765	0	0						0.6901682	349.1214	357.2761	
165.159	5.888204	160.9997	0	0						0.8886252	348.8133	357.1149	
165.181	5.909925	161.0215	0	0						1.142998	348.614	356.9539	
165.204	5.933464	161.045	0	0						1.461518	348.4755	356.8397	
165.227	5.956344	161.0679	0	0						1.68665	348.4196	356.738	
165.250	5.978686	161.0902	0	0						1.938686	348.4383	356.5924	
165.271	6.000525	161.1121	0	0						2.083417	348.4899	356.5236	
165.293	6.02222	161.1338	0	0						2.319501	348.519	356.4778	
165.316	6.04471	161.1563	0	0						2.428141	348.5484	356.4746	
165.341	6.068905	161.1804	0	0						2.615087	348.5329	356.4706	
165.360	6.088721	161.2003	0	0						2.608741	348.4865	356.4503	
165.383	6.111482	161.223	0	0						2.580005	348.4902	356.4462	
165.404	6.132925	161.2445	0	0						2.60853	348.4378	356.4858	
165.427	6.156251	161.2678	0	0						2.564776	348.4064	356.5439	
165.451	6.179015	161.2905	0	0						2.503381	348.2549	356.6993	
165.471	6.199876	161.3114	0	0						2.438281	348.162	356.7856	
165.494	6.22295	161.3345	0	0						2.253882	348.0169	356.9249	
165.527	6.255185	161.3667	0	0						2.130445	347.9092	357.0558	
165.544	6.273515	161.385	0	0						1.927352	347.7988	357.1401	
165.561	6.29069	161.4022	0	0						1.720083	347.7039	357.2161	
165.582	6.311292	161.4228	0	0						1.51173	347.5883	357.3081	
165.601	6.329699	161.4412	0	0						1.287742	347.4779	357.38	
165.623	6.352792	161.4643	0	0						1.092731	347.4489	357.4218	
165.647	6.376237	161.4878	0	0						0.8498135	347.4132	357.4341	
165.669	6.398258	161.5098	0	0						0.7376767	347.4024	357.472	
165.692	6.420777	161.5323	0	0						0.5674173	347.3992	357.4308	
165.716	6.445316	161.5569	0	0						0.3817043	347.4553	357.3587	
165.738	6.466554	161.5781	0	0						0.1690174	347.5061	357.2794	
165.759	6.487791	161.5993	0	0						0.04648086	347.6057	357.144	
165.782	6.510548	161.6221	0	0						359.9436	347.7058	357.0728	
165.800	6.5286	161.6401	0	0						359.8098	347.8195	356.9584	
165.817	6.546569	161.6581	0	0						359.782	347.8741	356.8992	
165.836	6.56494	161.6765	0	0						359.7359	347.9361	356.8022	
165.855	6.583699	161.6952	0	0						359.7003	348.0783	356.6819	
165.873	6.601625	161.7132	0	0						359.67	348.0987	356.6685	
165.890	6.619737	161.7313	0	0						359.6525	348.1612	356.5986	
165.906	6.636225	161.7478	0	0						359.597	348.2195	356.5243	
165.924	6.653103	161.7646	0	0						359.6093	348.2336	356.5159	
165.941	6.670164	161.7817	0	0						359.5719	348.3006	356.4801	
165.960	6.68973	161.8013	0	0						359.5685	348.2983	356.4557	
165.984	6.713133	161.8247	0	0						359.5611	348.3373	356.4477	
166.006	6.735737	161.8473	0	0						359.5493	348.3738	356.4394	
