Time	keytime	time-time	keypress	target id	target_lon	target_lat	target_x	target_y	target_z	hmd_rx	hmd_ry	hmd_rz	
107.493	0.02164618	103.4015	0	17						-0.008269623	0.02901907	0.09447464	
107.513	0.04492357	103.4247	0	17						-0.00821301	0.02899244	0.09453499	
107.530	0.06156353	103.4414	0	17						-0.008165888	0.0289886	0.09462781	
107.550	0.08119924	103.461	0	17						-0.008136202	0.0289913	0.09469041	
107.567	0.09885294	103.4787	0	17						-0.008120287	0.02897931	0.09484246	
107.612	0.1416424	103.5215	0	17						-0.008114565	0.02898175	0.09495006	
107.635	0.1670875	103.5469	0	17						-0.008150359	0.02896374	0.09510905	
107.653	0.1838345	103.5636	0	17						-0.008181576	0.02894701	0.09522432	
107.673	0.2039241	103.5837	0	17						-0.008203428	0.02892616	0.09529056	
107.692	0.2230076	103.6028	0	17						-0.008211712	0.0289146	0.09533478	
107.709	0.24057	103.6204	0	17						-0.008222409	0.02889489	0.09539668	
107.734	0.2650646	103.6449	0	17						-0.00822711	0.02885859	0.09544244	
107.755	0.2866049	103.6664	0	17						-0.008223161	0.02879852	0.09548291	
107.776	0.3076458	103.6875	0	17						-0.008229688	0.02876195	0.09550864	
107.798	0.3296954	103.7095	0	17						-0.008210919	0.02872678	0.0955307	
107.822	0.3528495	103.7327	0	17						-0.00818095	0.02870141	0.09556015	
107.839	0.3704716	103.7503	0	17						-0.008141089	0.02867826	0.09557492	
107.861	0.3923955	103.7722	0	17						-0.008074105	0.02865527	0.09558007	
107.884	0.4156618	103.7955	0	17						-0.00800746	0.028632	0.09559986	
107.906	0.4378706	103.8177	0	17						-0.007927433	0.02862367	0.09561795	
107.926	0.4567699	103.8366	0	17						-0.007822447	0.0286028	0.09564175	
107.950	0.4808583	103.8607	0	17						-0.007748466	0.0285947	0.09564614	
107.974	0.5047002	103.8845	0	17						-0.00760658	0.02858194	0.09566563	
107.993	0.523483	103.9033	0	17						-0.007474322	0.02857414	0.09569075	
108.022	0.5528467	103.9327	0	17						-0.007376052	0.02856333	0.09571199	
108.039	0.5705502	103.9504	0	17						-0.007252678	0.02854724	0.09574809	
108.060	0.591633	103.9714	0	17						-0.007188532	0.02854213	0.09577593	
108.082	0.6134511	103.9933	0	17						-0.007137801	0.02853893	0.09580793	
108.119	0.6366225	104.0164	0	17						-0.007093565	0.02852272	0.09584206	
108.143	0.6742284	104.054	0	17						-0.007060605	0.02847176	0.09589004	
108.160	0.6908036	104.0706	0	17						-0.007015824	0.02843783	0.09602299	
108.178	0.7100711	104.0899	0	17						-0.007011616	0.0284231	0.09609701	
108.194	0.7252545	104.1051	0	17						-0.007021181	0.02842599	0.09616581	
108.212	0.7437568	104.1236	0	17						-0.007018704	0.02841836	0.09622087	
108.236	0.7662302	104.146	0	17						-0.007028047	0.02839946	0.09626789	
108.258	0.7897328	104.1695	0	17						-0.007018894	0.02837091	0.09631306	
108.281	0.8120743	104.1919	0	17						-0.006998278	0.02834913	0.09636438	
108.304	0.8354663	104.2153	0	17						-0.006982334	0.02831296	0.09640869	
108.326	0.856792	104.2366	0	17						-0.006953406	0.02827518	0.09644737	
108.349	0.8805281	104.2603	0	17						-0.006924898	0.02824762	0.09646811	
108.372	0.902913	104.2827	0	17						-0.006881624	0.02821547	0.09645734	
108.393	0.9247125	104.3045	0	17						-0.00683863	0.02820201	0.09642902	
108.416	0.947436	104.3272	0	17						-0.00680058	0.02820143	0.09640852	
108.438	0.9695357	104.3493	0	17						-0.006749113	0.02822198	0.09637611	
108.460	0.991172	104.371	0	17						-0.00670398	0.02825555	0.09633584	
108.484	1.014857	104.3947	0	17						-0.006663631	0.02828539	0.09627952	
108.504	1.035272	104.4151	0	17						-0.0066141	0.02830189	0.09621333	
108.536	1.066202	104.446	0	17						-0.006581198	0.02833163	0.09615884	
108.552	1.083044	104.4629	0	17						-0.006548163	0.02837959	0.09608555	
108.572	1.103109	104.4829	0	17						-0.006534465	0.02840934	0.09605634	
108.596	1.12708	104.5069	0	17						-0.00652095	0.0284315	0.09602582	
108.616	1.147712	104.5275	0	17						-0.006507837	0.02844302	0.095993	
108.639	1.170417	104.5502	0	17						-0.006499305	0.02845915	0.09596765	
108.673	1.204746	104.5846	0	17						-0.006493568	0.02845919	0.09595191	
108.692	1.223012	104.6028	0	17						-0.006483167	0.028471	0.09593713	
108.707	1.238957	104.6188	0	17						-0.006476559	0.02847861	0.09593479	
108.719	1.250694	104.6305	0	17						-0.006457452	0.02847863	0.09592942	
108.736	1.267624	104.6474	0	17						-0.006451417	0.02847199	0.0959303	
108.760	1.290628	104.6704	0	17						-0.006433155	0.02847286	0.09592441	
108.776	1.307183	104.687	0	17						-0.006406401	0.02847763	0.09592267	
108.795	1.326137	104.7059	0	17						-0.006374806	0.02845633	0.09592628	
108.816	1.346965	104.7268	0	17						-0.006330167	0.02843023	0.09593602	
108.832	1.363955	104.7438	0	17						-0.006272309	0.02841996	0.09597398	
108.850	1.381278	104.7611	0	17						-0.006232937	0.02842604	0.09601953	
108.870	1.401328	104.7811	0	17						-0.006203428	0.02839896	0.0960739	
108.889	1.420477	104.8003	0	17						-0.006155681	0.02836831	0.09610684	
108.911	1.442501	104.8223	0	17						-0.006130867	0.02833817	0.09613729	
108.931	1.462447	104.8423	0	17						-0.006115288	0.02830983	0.09616594	
108.952	1.483618	104.8634	0	17						-0.006116737	0.02828366	0.09620222	
108.970	1.501207	104.881	0	17						-0.006110764	0.0282387	0.09624803	
108.996	1.527016	104.9068	0	17						-0.006121114	0.02823364	0.09626845	
109.019	1.549971	104.9298	0	17						-0.006124679	0.02819356	0.09630752	
109.045	1.576419	104.9562	0	17						-0.006122634	0.02817885	0.09633116	
109.070	1.601848	104.9817	0	17						-0.006124488	0.02816382	0.09636287	
109.087	1.618721	104.9985	0	17						-0.006127168	0.02816681	0.09641142	
109.106	1.637543	105.0173	0	17						-0.006128505	0.02817185	0.09644211	
109.127	1.658781	105.0386	0	17						-0.00614383	0.02819359	0.09647161	
109.146	1.677153	105.057	0	17						-0.006135556	0.02820697	0.09647842	
109.177	1.708452	105.0883	0	17						-0.006146308	0.02824417	0.09646697	
109.193	1.723914	105.1037	0	17						-0.006187937	0.0282945	0.09646428	
109.215	1.746217	105.126	0	17						-0.006200202	0.02834257	0.09644629	
109.238	1.769576	105.1494	0	17						-0.006246623	0.02840392	0.09641527	
109.258	1.789347	105.1692	0	17						-0.006287903	0.0284566	0.09636927	
109.284	1.789347	105.1918	1	5	120	-30	-0.375	-0.25	-0.2165064	-0.006370899	0.02850124	0.09633578	
109.284	1.811953	105.1918	0	5						-0.006370899	0.02850124	0.09633578	
109.303	1.834341	105.2141	0	5						-0.006448768	0.02855504	0.0962924	
109.327	1.85788	105.2377	0	5						-0.00655058	0.02858322	0.09623954	
109.352	1.882671	105.2625	0	5						-0.006632395	0.02861126	0.09617647	
109.373	1.903744	105.2836	0	5						-0.006743353	0.02864888	0.09608997	
109.400	1.930705	105.3105	0	5						-0.006832938	0.02866852	0.09601644	
109.420	1.951554	105.3314	0	5						-0.006945497	0.0286704	0.09590109	
109.436	1.967573	105.3474	0	5						-0.007029663	0.02868087	0.09582505	
109.459	1.990435	105.3702	0	5						-0.007093154	0.02868721	0.09576151	
109.483	2.013642	105.3934	0	5						-0.007202626	0.02869591	0.09570705	
109.507	2.037072	105.4169	0	5						-0.007274047	0.02871691	0.09563315	
109.527	2.058035	105.4378	0	5						-0.007360075	0.02875162	0.0955661	
109.557	2.088261	105.4681	0	5						-0.007425364	0.02879236	0.0955257	
109.577	2.10867	105.4885	0	5						-0.00748492	0.02882846	0.09545188	
109.595	2.126418	105.5062	0	5						-0.007483907	0.02890255	0.0954178	
109.615	2.146987	105.5268	0	5						-0.007509655	0.02896182	0.09538818	
109.640	2.170909	105.5507	0	5						-0.007527401	0.02901599	0.09534874	
109.663	2.194503	105.5743	0	5						-0.007547309	0.02906511	0.09530389	
109.681	2.212645	105.5925	0	5						-0.007576354	0.02909268	0.09526725	
109.708	2.239424	105.6192	0	5						-0.007587284	0.02911614	0.09522796	
109.729	2.260695	105.6405	0	5						-0.007594924	0.0291548	0.09514761	
109.764	2.295267	105.6751	0	5						-0.007614133	0.0291631	0.09506731	
109.780	2.311892	105.6917	0	5						-0.007660579	0.02916909	0.09490526	
109.800	2.331758	105.7116	0	5						-0.007663995	0.02917146	0.09480687	
109.815	2.347195	105.727	0	5						-0.007692081	0.02916871	0.09471043	
109.833	2.363727	105.7435	0	5						-0.007696237	0.0291589	0.09461586	
109.856	2.387081	105.7669	0	5						-0.007704258	0.0291537	0.09452794	
109.873	2.404052	105.7839	0	5						-0.007727559	0.02914359	0.09440307	
109.891	2.421921	105.8017	0	5						-0.007740099	0.02913194	0.09432699	
109.908	2.4393	105.8191	0	5						-0.007765278	0.02912529	0.09424031	
109.932	2.4632	105.843	0	5						-0.007796236	0.02911526	0.09415098	
109.953	2.484989	105.8648	0	5						-0.007828388	0.02914862	0.09401815	
109.972	2.503504	105.8833	0	5						-0.007895336	0.029173	0.09395038	
109.996	2.527249	105.9071	0	5						-0.007944707	0.02920411	0.09387466	
110.018	2.549537	105.9293	0	5						-0.008006041	0.02923471	0.09379002	
110.040	2.57072	105.9505	0	5						-0.008099032	0.02923828	0.0936349	
110.069	2.599653	105.9795	0	5						-0.008216937	0.02919728	0.09348903	
110.085	2.616001	105.9958	0	5						-0.008440513	0.02920692	0.0932951	
110.105	2.636158	106.016	0	5						-0.008593954	0.02923802	0.09312149	
110.129	2.660502	106.0403	0	5						-0.008794162	0.02923443	0.09295168	
110.152	2.682313	106.0621	0	5						-0.00906308	0.02923037	0.09270652	
110.173	2.705055	106.0849	0	5						-0.009388469	0.0292079	0.09244277	
110.196	2.727101	106.1069	0	5						-0.009684086	0.0292272	0.09211317	
110.217	2.747447	106.1273	0	5						-0.0100675	0.02922105	0.09180521	
110.240	2.770608	106.1504	0	5						-0.01042339	0.02922784	0.09146045	
110.274	2.804779	106.1846	0	5						-0.01093464	0.02925062	0.09107884	
110.292	2.823208	106.203	0	5						-0.01154731	0.02919655	0.09059903	
110.309	2.840263	106.2201	0	5						-0.012125	0.02914658	0.09011384	
110.334	2.865765	106.2456	0	5						-0.0128312	0.02902642	0.08961116	
110.353	2.883799	106.2636	0	5						-0.01352604	0.02884688	0.08892794	
110.371	2.902131	106.2819	0	5						-0.01427827	0.02876386	0.08832465	
110.392	2.923628	106.3034	0	5						-0.0149996	0.02886181	0.08759297	
110.415	2.946299	106.3261	0	5						-0.01582146	0.02886344	0.08669148	
110.438	2.969609	106.3494	0	5						-0.01682444	0.0287782	0.08562114	
110.461	2.992978	106.3728	0	5						-0.01778854	0.02875778	0.08444291	
110.484	3.014874	106.3947	0	5						-0.0188572	0.02858084	0.08334158	
110.504	3.035085	106.4149	0	5						-0.0201321	0.028439	0.08223648	
110.528	3.059658	106.4395	0	5						-0.02143887	0.02823663	0.08116084	
110.550	3.081525	106.4613	0	5						-0.02284982	0.02792808	0.08002339	
110.580	3.111424	106.4912	0	5						-0.02430594	0.02760833	0.07874623	
110.598	3.129314	106.5091	0	5						-0.02574969	0.02729548	0.0772875	
110.618	3.149539	106.5294	0	5						-0.02713916	0.02698189	0.0757492	
110.642	3.172491	106.5523	0	5						-0.02863025	0.02666882	0.07412843	
110.662	3.193419	106.5732	0	5						-0.03005235	0.02633658	0.07251632	
110.683	3.214076	106.5939	0	5						-0.03161806	0.0259498	0.07082774	
110.706	3.237386	106.6172	0	5						-0.03307064	0.02557553	0.06908576	
110.726	3.257505	106.6373	0	5						-0.0345153	0.0250786	0.06726985	
110.750	3.28035	106.6602	0	5						-0.03587922	0.02469486	0.06534187	
110.773	3.304854	106.6847	0	5						-0.03714763	0.02436143	0.06329221	
110.795	3.326582	106.7064	0	5						-0.03832335	0.02404955	0.06125417	
110.817	3.348692	106.7285	0	5						-0.03923288	0.02382061	0.05935159	
110.852	3.383045	106.7629	0	5						-0.04000402	0.02357911	0.05749025	
110.867	3.399066	106.7789	0	5						-0.04094475	0.02340952	0.05599347	
110.887	3.417917	106.7977	0	5						-0.04133373	0.02319768	0.05437859	
110.903	3.434788	106.8146	0	5						-0.04163099	0.02297807	0.05285957	
110.924	3.455844	106.8357	0	5						-0.04178913	0.02275305	0.05140918	
110.949	3.479942	106.8597	0	5						-0.04194775	0.02267203	0.05011592	
110.972	3.502889	106.8827	0	5						-0.04193732	0.02269359	0.04910077	
110.992	3.523718	106.9035	0	5						-0.04173287	0.02266849	0.04806539	
111.016	3.547348	106.9272	0	5						-0.0415772	0.02261581	0.04718493	
111.038	3.568967	106.9488	0	5						-0.04154815	0.02250553	0.04636924	
111.060	3.591921	106.9717	0	5						-0.04149733	0.02211823	0.04571228	
111.083	3.614832	106.9946	0	5						-0.04128614	0.0217062	0.04512049	
111.117	3.647644	107.0275	0	5						-0.04086545	0.02120562	0.04488721	
111.135	3.665597	107.0454	0	5						-0.04056994	0.02068439	0.04506725	
111.153	3.684758	107.0646	0	5						-0.03984208	0.02013013	0.04508685	
111.175	3.706013	107.0858	0	5						-0.03889795	0.01949261	0.04522676	
111.192	3.723119	107.1029	0	5						-0.03818943	0.01885371	0.04559133	
111.219	3.750627	107.1304	0	5						-0.03736123	0.01822683	0.04585893	
111.238	3.769565	107.1494	0	5						-0.03697707	0.01757895	0.04628227	
111.261	3.792652	107.1725	0	5						-0.03645642	0.01699318	0.04650386	
111.284	3.815216	107.195	0	5						-0.03606119	0.01637799	0.04648593	
111.306	3.83746	107.2173	0	5						-0.03600783	0.01573956	0.04637551	
111.328	3.859391	107.2392	0	5						-0.03591044	0.0150772	0.04610131	
111.350	3.88102	107.2608	0	5						-0.03594211	0.01434989	0.0457502	
111.371	3.902639	107.2824	0	5						-0.03585867	0.01372887	0.04543295	
111.410	3.941461	107.3213	0	5						-0.03558942	0.01294376	0.04514224	
111.435	3.966403	107.3462	0	5						-0.03636118	0.01217109	0.04520346	
111.451	3.982659	107.3625	0	5						-0.0364329	0.01147123	0.04524574	
111.470	4.001052	107.3809	0	5						-0.03592947	0.01082073	0.04532032	
111.488	4.018921	107.3987	0	5						-0.03587128	0.01022699	0.04561061	
111.509	4.039936	107.4197	0	5						-0.03539871	0.009750884	0.04595391	
111.530	4.061215	107.441	0	5						-0.0352382	0.009468245	0.04643898	
111.552	4.083473	107.4633	0	5						-0.03525692	0.009397324	0.04700254	
111.575	4.106101	107.4859	0	5						-0.03514772	0.009394993	0.04767311	
111.595	4.127039	107.5069	0	5						-0.03528398	0.009509498	0.04844451	
111.630	4.160986	107.5408	0	5						-0.03523723	0.00963195	0.04923353	
111.646	4.178568	107.5584	0	5						-0.03577153	0.009554858	0.0500335	
111.666	4.197095	107.5769	0	5						-0.03549172	0.009587092	0.05081785	
111.684	4.214915	107.5947	0	5						-0.03518401	0.009484285	0.05162511	
111.705	4.23632	107.6161	0	5						-0.03477496	0.009258782	0.05240742	
111.729	4.260012	107.6398	0	5						-0.03462144	0.008900929	0.05316426	
111.757	4.287873	107.6677	0	5						-0.03462918	0.008389885	0.05384967	
111.773	4.304622	107.6844	0	5						-0.03507706	0.007737377	0.05438226	
111.796	4.327659	107.7075	0	5						-0.03488679	0.007275386	0.05492643	
111.815	4.345932	107.7257	0	5						-0.03534193	0.006731186	0.05531872	
111.839	4.370538	107.7503	0	5						-0.035547	0.006140083	0.05569901	
111.864	4.394511	107.7743	0	5						-0.03594012	0.005624868	0.05573535	
111.885	4.416282	107.7961	0	5						-0.03642338	0.005040164	0.05573231	
111.906	4.437584	107.8174	0	5						-0.03692565	0.004267783	0.05554567	
111.932	4.463219	107.843	0	5						-0.03742528	0.003463845	0.05524606	
111.952	4.483203	107.863	0	5						-0.03796251	0.002747443	0.05488079	
111.985	4.515971	107.8958	0	5						-0.0384195	0.002049187	0.05458168	
112.002	4.533067	107.9129	0	5						-0.0391916	0.001421051	0.05429082	
112.020	4.552056	107.9319	0	5						-0.03940486	0.0008946471	0.05409546	
112.038	4.569765	107.9496	0	5						-0.039563	0.0005200153	0.0539555	
112.061	4.592393	107.9722	0	5						-0.03975217	0.0002395375	0.05390542	
112.083	4.614788	107.9946	0	5						-0.0400574	6.223912E-05	0.05403681	
112.101	4.632571	108.0124	0	5						-0.04037257	7.107854E-05	0.05407239	
112.118	4.649784	108.0296	0	5						-0.04073017	-2.687331E-05	0.05410828	
112.135	4.649784	108.046	1	5	120	-30	-0.375	-0.25	-0.2165064	-0.04080847	5.968614E-07	0.05419046	
112.135	4.666171	108.046	0	5						-0.04080847	5.968614E-07	0.05419046	
112.155	4.686494	108.0663	0	5						-0.04106975	3.081886E-05	0.05419295	
112.176	4.707764	108.0876	0	5						-0.04124222	2.080342E-07	0.05420788	
112.192	4.723119	108.1029	0	5						-0.04150409	0.00013331	0.05416532	
112.219	4.747981	108.1278	0	5						-0.04152718	0.0006057038	0.05407495	
112.240	4.771097	108.1509	0	5						-0.04173857	0.00115416	0.05387386	
112.258	4.78985	108.1697	0	5						-0.04202662	0.001524108	0.05372378	
112.278	4.808691	108.1885	0	5						-0.04220476	0.001856511	0.05364671	
112.294	4.825615	108.2054	0	5						-0.04238599	0.002245694	0.05358646	
112.314	4.844779	108.2246	0	5						-0.04267649	0.002478552	0.05354359	
112.334	4.865931	108.2457	0	5						-0.04280728	0.002456301	0.05364627	
112.353	4.88445	108.2643	0	5						-0.04297769	0.002849369	0.05373491	
112.377	4.907849	108.2877	0	5						-0.04300026	0.003322234	0.0538993	
112.400	4.930555	108.3104	0	5						-0.04304251	0.003701178	0.05421555	
112.420	4.950803	108.3306	0	5						-0.04294111	0.004247285	0.05472098	
112.440	4.971338	108.3511	0	5						-0.04282259	0.004817158	0.05532819	
112.462	4.99362	108.3734	0	5						-0.04256824	0.005382208	0.05605714	
112.483	5.014069	108.3939	0	5						-0.04219645	0.005829486	0.05690905	
112.516	5.047462	108.4273	0	5						-0.04176484	0.006239831	0.05784265	
112.540	5.070144	108.45	0	5						-0.04123455	0.006750386	0.05894748	
112.559	5.089954	108.4698	0	5						-0.04057036	0.007326537	0.06013334	
112.576	5.106794	108.4866	0	5						-0.03980368	0.007813151	0.0613679	
112.593	5.124763	108.5046	0	5						-0.03887407	0.008354084	0.06261023	
112.613	5.144857	108.5247	0	5						-0.03778123	0.00887509	0.06396433	
112.636	5.166821	108.5466	0	5						-0.03654867	0.009415186	0.0653263	
112.660	5.191217	108.571	0	5						-0.03512979	0.01002628	0.06674745	
112.682	5.212692	108.5925	0	5						-0.03351746	0.01061621	0.06816266	
112.707	5.237465	108.6173	0	5						-0.03160122	0.01153743	0.06968596	
112.737	5.268412	108.6482	0	5						-0.02929793	0.01214725	0.07142389	
112.754	5.2852	108.665	0	5						-0.02660696	0.01297248	0.07298985	
112.771	5.30249	108.6823	0	5						-0.02416178	0.0137617	0.07464772	
112.792	5.323776	108.7036	0	5						-0.02171898	0.0143548	0.07626875	
112.816	5.348001	108.7278	0	5						-0.01946796	0.01500566	0.07760467	
112.839	5.370504	108.7503	0	5						-0.01730511	0.01538177	0.07874554	
112.863	5.394114	108.7739	0	5						-0.01525148	0.01574684	0.07977849	
112.884	5.415164	108.795	0	5						-0.01336719	0.01600579	0.08067978	
112.901	5.432685	108.8125	0	5						-0.01144808	0.01637739	0.0815567	
112.925	5.45684	108.8366	0	5						-0.009566737	0.01659116	0.08242811	
112.948	5.479932	108.8597	0	5						-0.007516619	0.01687017	0.0831847	
112.973	5.503284	108.8831	0	5						-0.005464477	0.01690315	0.08397436	
112.996	5.527509	108.9073	0	5						-0.003490286	0.01707138	0.08480625	
113.018	5.549039	108.9288	0	5						-0.00155924	0.01719374	0.08549076	
113.040	5.571424	108.9512	0	5						0.0002403026	0.01720102	0.08621007	
113.074	5.605679	108.9855	0	5						0.001953644	0.01731846	0.08692443	
113.091	5.622879	109.0027	0	5						0.00369402	0.01732542	0.08764613	
113.111	5.641907	109.0217	0	5						0.005115445	0.01730396	0.08838559	
113.128	5.659568	109.0394	0	5						0.006350499	0.01728129	0.08906665	
113.146	5.677443	109.0573	0	5						0.007420328	0.01727978	0.08967054	
113.171	5.702541	109.0824	0	5						0.008536127	0.01718492	0.0902513	
113.193	5.724308	109.1041	0	5						0.009641081	0.0170678	0.09074564	
113.214	5.745166	109.125	0	5						0.01077326	0.0169603	0.09131622	
113.238	5.770094	109.1499	0	5						0.01173114	0.01688746	0.09183914	
113.268	5.799648	109.1795	0	5						0.01292512	0.0166506	0.09223653	
113.288	5.818779	109.1986	0	5						0.01400705	0.01653124	0.09258692	
113.306	5.837135	109.2169	0	5						0.01496641	0.01637518	0.09299099	
113.333	5.863887	109.2437	0	5						0.01565096	0.01634907	0.0934272	
113.349	5.880842	109.2607	0	5						0.01676736	0.01640053	0.09369936	
113.372	5.903834	109.2836	0	5						0.01733235	0.01636826	0.09406657	
113.395	5.926755	109.3066	0	5						0.01783123	0.01641404	0.09426954	
113.416	5.947326	109.3271	0	5						0.01824224	0.01640534	0.09450104	
113.438	5.969261	109.3491	0	5						0.01846553	0.01652751	0.09464553	
113.462	5.993409	109.3732	0	5						0.01855287	0.01661593	0.0947417	
113.490	6.019962	109.3998	0	5						0.01844074	0.01671103	0.09482919	
113.512	6.043064	109.4229	0	5						0.01918908	0.01674089	0.0945807	
113.527	6.058704	109.4385	0	5						0.01818429	0.01687321	0.09474512	
